200.398	0.277768
202.213	0.320129
204.027	0.363923
205.843	0.384248
207.657	0.210061
209.47	-0.207849
211.283	-0.14112
213.097	0.336432
214.909	-0.158511
216.721	0.436965
218.533	0.328942
220.344	0.511917
222.157	0.405234
223.967	0.0576296
225.777	-0.0234442
227.587	0.330197
229.396	-0.186436
231.205	0.310182
233.016	0.0578842
234.824	0.0952215
236.632	-0.300263
238.439	0.463311
240.247	0.409919
242.053	0.0936222
243.86	-0.342258
245.666	0.065877
247.474	-0.0587015
249.279	-0.114151
251.085	-0.149153
252.889	-0.259852
254.694	0.664624
256.498	-0.0762405
258.301	0.509686
260.105	0.325868
261.908	-0.337729
263.71	-0.445641
265.513	-0.239424
267.315	0.183937
269.116	0.0283852
270.918	-0.0319014
272.718	-0.0936909
274.519	0.156197
276.319	0.259371
278.119	0.167445
279.918	0.410362
281.718	0.626405
283.516	0.382838
285.315	-0.270571
287.113	0.396337
288.911	0.582117
290.708	0.576536
292.505	0.332891
294.302	-0.530775
296.098	0.377134
297.894	-0.172572
299.69	0.18639
301.485	-0.267309
303.278	0.78241
305.073	0.230761
306.867	0.465545
308.661	0.342034
310.454	0.671759
312.247	0.454574
314.04	0.405867
315.833	0.69243
317.623	0.718933
319.415	1.0568
321.206	0.609635
322.997	0.568174
324.788	0.980387
326.579	0.0560122
328.367	-0.081543
330.156	0.377559
331.946	0.6683
333.735	-0.167288
335.523	0.382241
337.31	0.68986
339.098	0.588199
340.885	0.245534
342.673	0.308448
344.458	0.299381
346.244	0.410151
348.03	1.0468
349.816	-0.035224
351.6	-0.257638
353.385	0.593173
355.17	-0.418404
356.953	-0.0954456
358.737	0.96441
360.521	0.806974
362.304	0.148842
364.085	-0.0336695
365.868	0.329668
367.65	0.643917
369.431	0.57709
371.212	0.106654
372.994	-0.529241
374.773	0.135602
376.554	-0.40504
378.332	0.65941
380.112	-0.138474
381.892	-0.698421
383.669	0.437204
385.448	0.561875
387.225	0.288225
389.003	0.579702
390.781	0.848564
392.557	0.554573
394.334	0.519564
396.109	0.08564
397.885	0.215389
399.66	0.0865135
401.436	0.285939
403.211	0.437633
404.984	0.28309
406.759	0.738246
408.532	0.394229
410.306	0.284635
412.078	0.0811501
413.851	-0.380023
415.623	-0.723164
417.395	0.154563
419.166	0.282084
420.938	0.52723
422.708	0.302642
424.477	-0.181035
426.248	-0.149277
428.017	0.444926
429.788	-0.0647802
431.556	-0.0346909
433.326	0.0660591
435.093	-0.325762
436.86	1.11298
438.629	-0.0776377
440.395	0.021019
442.163	0.375499
443.929	-0.0698242
445.694	-0.165195
447.461	0.440399
449.226	-0.195045
450.99	0.175303
452.756	0.0550699
454.52	0.238468
456.285	0.0485935
458.048	0.62735
459.811	-0.097949
461.573	0.434184
463.337	0.409463
465.099	0.689369
466.86	0.414694
468.623	-0.391725
470.384	0.0821419
472.144	-0.140864
473.906	0.100777
475.666	0.503779
477.425	0.508559
479.184	1.00041
480.944	0.605877
482.703	0.16492
484.461	0.726666
486.218	0.708279
487.975	0.459193
489.734	0.258716
491.491	0.362503
493.247	0.280272
495.003	0.689213
496.759	0.279529
498.516	0.384219
500.271	0.863781
502.025	0.521971
503.779	0.883263
505.533	0.209617
507.287	0.827048
509.042	0.761083
510.795	0.410894
512.547	0.788325
514.299	0.411098
516.051	0.479424
517.803	0.499328
519.554	0.706144
521.305	1.09987
523.055	0.412344
524.805	0.617194
526.555	0.72794
528.307	0.041378
530.056	-0.0118504
531.805	0.49667
533.553	0.512161
535.301	0.269046
537.049	0.0481682
538.797	0.316478
540.544	0.582913
542.291	0.871099
544.037	0.553229
545.783	0.584617
547.529	0.221547
549.275	-0.0476971
551.02	0.309113
552.765	0.34148
554.509	0.327764
556.253	0.291265
557.997	0.624214
559.738	0.242867
561.482	0.484312
563.224	0.772
564.967	0.255426
566.709	0.406396
568.451	0.374388
570.192	0.733676
571.933	0.406
573.674	0.0114355
575.415	-0.197709
577.153	0.237328
578.893	0.21499
580.632	0.560967
582.371	0.447868
584.11	-0.309613
585.849	0.58711
587.587	-0.472342
589.323	-0.037981
591.06	-0.0417023
592.797	8.58307e-006
594.534	0.0875511
596.271	-0.00893021
598.005	0.51575
599.741	0.395859
601.476	-0.276984
603.211	-0.0769615
604.944	-0.453322
606.679	-0.37115
608.413	0.559747
610.147	0.0893631
611.878	-0.219425
613.611	0.160728
615.344	0.220439
617.077	-0.338266
618.807	0.0877409
620.539	1.08448
622.27	0.52308
623.999	0.395785
625.73	0.656951
627.461	0.234013
629.189	0.0418139
630.919	0.947477
632.648	0.828595
634.376	0.300153
636.105	0.866959
637.833	0.016675
639.559	0.806925
641.287	0.635184
643.013	-0.177202
644.74	0.422082
646.467	-0.094121
648.192	-0.130205
649.918	0.155085
651.642	1.05787
653.368	0.101612
655.091	0.0123034
656.816	-0.188508
658.538	0.773802
660.263	0.825065
661.987	0.0297155
663.708	0.693286
665.432	1.12623
667.153	0.345235
668.875	0.020463
670.596	0.771381
672.318	0.243372
674.037	0.0838423
675.759	0.45356
677.478	1.0319
679.196	0.279571
680.917	0.697181
682.635	0.699418
684.355	1.13665
686.072	1.11138
687.791	0.646639
689.508	-0.141953
691.224	0.266419
692.942	0.512873
694.658	0.597264
696.376	-0.0793657
698.091	0.716429
699.805	0.750889
701.522	0.806993
703.236	0.793014
704.95	0.456701
706.665	0.854689
708.379	0.861761
710.093	0.66215
711.806	0.714315
713.518	0.994776
715.23	1.22879
716.943	0.982828
718.655	1.14804
720.366	1.49549
722.078	0.521718
723.788	0.960379
725.498	0.852568
727.208	0.971762
728.919	1.20372
730.628	0.913307
732.337	1.39308
734.045	1.30601
735.755	1.626
737.463	0.613513
739.17	1.13776
740.877	1.14373
742.584	1.46643
744.292	0.889734
745.998	1.44039
747.704	1.40735
749.409	1.06096
751.114	0.941035
752.819	0.980005
754.526	0.750541
756.23	1.73784
757.934	1.82714
759.637	1.01711
761.34	1.46982
763.043	1.02134
764.746	1.47513
766.448	1.81535
768.152	2.04082
769.853	1.13332
771.554	0.992076
773.255	1.43717
774.956	1.72337
776.656	1.24137
778.356	1.62001
780.056	1.05061
781.755	1.72647
783.454	1.13566
785.153	1.1772
786.851	2.30281
788.549	1.54605
790.247	1.48736
791.944	1.60648
793.641	1.67834
795.338	1.11805
797.034	1.21334
798.73	1.73817
800.426	1.27402
802.121	1.5319
803.817	1.34058
805.511	1.48649
807.206	1.40669
808.9	1.55025
810.592	1.5801
812.286	2.0349
813.979	1.86091
815.672	1.77647
817.364	1.66973
819.057	2.21139
820.748	2.41737
822.44	2.04332
824.129	2.27278
825.82	2.16931
827.511	1.9125
829.201	1.97077
830.891	1.40895
832.581	1.78579
834.269	1.47442
835.958	1.83302
837.646	2.12494
839.335	1.34409
841.023	2.12441
842.709	1.47371
844.396	1.6266
846.084	1.51203
847.77	1.17574
849.455	1.62485
851.141	1.94309
852.827	1.95041
854.513	1.59989
856.196	1.31587
857.881	0.760291
859.566	1.9121
861.248	1.53237
862.932	0.632194
864.616	1.28486
866.297	1.08029
867.98	1.41606
869.663	0.871867
871.343	1.11663
873.026	1.00028
874.707	0.522787
876.387	0.902716
878.068	0.876509
879.747	1.32422
881.428	1.18469
883.108	1.29269
884.786	0.654539
886.465	1.34666
888.143	1.4726
889.822	1.10049
891.498	0.68205
893.177	1.65899
894.855	1.2604
896.53	1.17605
898.208	0.776313
899.883	0.623173
901.56	0.648726
903.234	0.964525
904.91	1.6592
906.584	1.39261
908.26	1.14963
909.933	1.06411
911.608	1.38019
913.28	1.42977
914.955	0.991176
916.627	1.50738
918.298	1.57929
919.972	1.16404
921.643	1.01564
923.315	0.868711
924.986	1.12141
926.656	1.24343
928.328	0.683034
929.997	0.918766
931.668	1.06693
933.337	1.14921
935.006	0.878753
936.676	1.09402
938.344	0.604486
940.012	0.645583
941.681	1.5925
943.348	0.444464
945.014	0.708311
946.683	0.772393
948.349	0.679983
950.015	0.431016
951.682	0.511745
953.347	0.371885
955.012	0.167542
956.676	0.804061
958.343	0.562033
960.006	0.742244
961.67	0.239735
963.333	0.510105
964.998	1.17717
966.661	0.801979
968.323	0.932398
969.985	0.728554
971.649	0.523738
973.31	0.341558
974.971	1.00127
976.632	0.844771
978.293	0.712054
979.953	0.613246
981.615	0.514006
983.274	1.15491
984.933	0.86391
986.592	0.570647
988.251	0.518926
989.909	0.64275
991.567	1.274
993.225	0.534877
994.884	0.72383
996.541	0.802403
998.198	2.11562
999.855	2.50151
1001.51	2.20373
1003.17	1.42166
1004.82	0.37637
1006.48	0.56307
1008.13	0.903342
1009.79	0.936274
1011.44	-0.214565
1013.1	0.630944
1014.75	0.205474
1016.4	-0.131518
1018.06	-0.095643
1019.71	0.35659
1021.36	0.32861
1023.01	0.782743
1024.66	0.385471
1026.32	-0.0765743
1027.97	0.204424
1029.62	0.550237
1031.27	0.283047
1032.92	0.538256
1034.57	-0.0159025
1036.22	0.584712
1037.87	0.355632
1039.52	0.27916
1041.16	0.0947418
1042.81	0.737985
1044.46	0.383038
1046.11	0.96449
1047.76	0.353427
1049.4	-0.103705
1051.05	0.635083
1052.7	0.592962
1054.34	0.442623
1055.99	0.335703
1057.63	0.57626
1059.28	-0.422935
1060.92	0.620929
1062.57	0.337621
1064.21	0.531668
1065.85	0.594074
1067.5	-0.235851
1069.14	-0.457963
1070.78	0.361807
1072.43	0.616321
1074.07	-0.0401821
1075.71	0.280977
1077.35	0.841987
1078.99	0.298358
1080.63	0.926625
1082.27	0.579118
1083.91	0.751077
1085.55	0.422601
1087.19	0.200434
1088.83	-0.00210667
1090.47	0.529368
1092.11	0.950488
1093.75	0.916696
1095.39	0.494765
1097.03	-0.184172
1098.66	1.03501
1100.3	0.575412
1101.94	0.118468
1103.57	0.244633
1105.21	0.350726
1106.84	0.371445
1108.48	0.520901
1110.11	0.475619
1111.75	0.708015
1113.38	0.573167
1115.02	0.694639
1116.65	0.19311
1118.29	-0.264763
1119.92	0.735535
1121.55	0.772232
1123.19	0.895737
1124.82	0.677991
1126.45	-0.0733356
1128.08	0.459635
1129.71	0.3304
1131.34	0.223235
1132.97	0.30884
1134.6	0.586693
1136.23	0.414967
1137.86	0.178047
1139.49	0.132194
1141.12	0.704401
1142.75	0.165817
1144.38	-0.00951481
1146.01	-0.226592
1147.64	-0.0588636
1149.26	0.152329
1150.89	-0.509327
1152.52	0.511681
1154.15	0.29701
1155.77	0.124587
1157.4	0.335088
1159.02	0.311881
1160.65	0.0557146
1162.27	-0.28419
1163.9	-0.452858
1165.52	-0.23824
1167.15	0.63527
1168.77	0.210663
1170.39	-0.0668507
1172.02	-0.346265
1173.64	0.137066
1175.26	0.130381
1176.89	0.229088
1178.51	0.243115
1180.13	0.638898
1181.75	0.273639
1183.37	-0.174978
1184.99	-0.263791
1186.61	-0.247863
1188.23	-0.0437746
1189.85	0.326432
1191.47	0.0199862
1193.09	0.00696659
1194.71	0.349998
1196.33	-0.125623
1197.94	0.78297
1199.56	0.0600071
1201.18	0.448535
1202.8	0.0460243
1204.41	0.377301
1206.03	0.502141
1207.65	0.33642
1209.26	0.10853
1210.88	0.00501442
1212.49	0.379279
1214.11	0.396508
1215.72	0.452838
1217.34	0.715045
1218.95	0.622244
1220.57	0.550225
1222.18	0.831662
1223.79	0.782483
1225.41	0.900768
1227.02	0.999989
1228.63	0.604358
1230.24	0.934159
1231.85	1.03779
1233.47	1.41149
1235.08	1.2286
1236.69	0.799107
1238.3	1.11493
1239.91	1.34898
1241.52	1.21111
1243.13	1.52795
1244.74	0.830131
1246.34	1.66229
1247.95	1.99664
1249.56	1.68859
1251.17	1.56641
1252.78	1.71341
1254.38	1.48894
1255.99	1.12097
1257.6	1.10605
1259.2	1.13387
1260.81	1.30767
1262.42	1.33723
1264.02	1.30472
1265.63	1.37536
1267.23	1.69394
1268.84	1.20299
1270.44	0.793657
1272.04	1.04659
1273.65	1.96175
1275.25	1.65247
1276.85	1.21789
1278.46	1.01051
1280.06	0.926806
1281.66	0.760045
1283.26	1.3383
1284.86	1.52378
1286.46	1.56547
1288.07	1.2777
1289.67	1.44575
1291.27	1.73838
1292.87	2.27883
1294.47	1.59943
1296.06	1.68297
1297.66	2.15678
1299.26	1.84407
1300.86	1.94227
1302.46	2.20358
1304.06	1.41366
1305.65	2.18694
1307.25	1.89002
1308.85	2.63969
1310.44	2.34255
1312.04	1.86225
1313.64	2.22239
1315.23	2.41959
1316.83	2.3931
1318.42	2.81623
1320.02	1.73
1321.61	1.9685
1323.2	2.4693
1324.8	1.46267
1326.39	2.1418
1327.99	1.82501
1329.58	1.87413
1331.17	1.3587
1332.76	1.69557
1334.36	1.95379
1335.95	2.43568
1337.54	2.07072
1339.13	1.76591
1340.72	2.20482
1342.31	2.49953
1343.9	2.40922
1345.49	1.27371
1347.08	1.76522
1348.67	1.33622
1350.26	2.25177
1351.85	2.14915
1353.43	1.60937
1355.02	1.5313
1356.61	1.81343
1358.2	0.976265
1359.78	1.6163
1361.37	1.71562
1362.96	1.73403
1364.54	1.55261
1366.13	0.993123
1367.71	1.03257
1369.3	2.10848
1370.88	1.25505
1372.47	1.79646
1374.05	1.18511
1375.64	0.972536
1377.22	0.581006
1378.8	1.16399
1380.39	0.890218
1381.97	1.1124
1383.55	1.59147
1385.13	1.21425
1386.72	1.09512
1388.3	0.896825
1389.88	0.441409
1391.46	0.483397
1393.04	0.446898
1394.62	0.84721
1396.2	0.969566
1397.78	1.17038
1399.36	1.36991
1400.94	1.23145
1402.52	1.29039
1404.1	0.953537
1405.68	0.518755
1407.25	0.994523
1408.83	0.957198
1410.41	0.742743
1411.98	0.923339
1413.56	1.28084
1415.14	0.867514
1416.71	1.08469
1418.29	1.08437
1419.87	0.985893
1421.44	1.22345
1423.02	1.32484
1424.59	0.936075
1426.16	0.489775
1427.74	1.36283
1429.31	0.995645
1430.89	1.35572
1432.46	1.43889
1434.03	1.83565
1435.6	1.7203
1437.18	2.11643
1438.75	2.53289
1440.32	1.96777
1441.89	2.5831
1443.46	2.57042
1445.03	2.59755
1446.6	2.29078
1448.17	2.73113
1449.74	2.01203
1451.31	2.35506
1452.88	2.69889
1454.45	2.27619
1456.02	2.50258
1457.59	2.70864
1459.16	2.3031
1460.72	2.28908
1462.29	1.62356
1463.86	1.66455
1465.43	1.40938
1466.99	1.488
1468.56	1.66509
1470.13	1.09731
1471.69	1.62985
1473.26	0.672759
1474.82	1.07
1476.38	0.0559139
1477.95	1.12031
1479.51	0.635812
1481.08	0.778528
1482.64	0.842729
1484.2	0.593287
1485.77	0.0105381
1487.33	0.935337
1488.89	0.78134
1490.46	0.0189161
1492.02	0.350149
1493.58	0.776135
1495.14	0.477352
1496.7	0.0611792
1498.26	0.793925
1499.82	0.611955
1501.38	0.392757
1502.94	0.737752
1504.5	0.42433
1506.06	0.169885
1507.62	0.0893526
1509.18	0.568179
1510.73	0.0605812
1512.29	-0.292532
1513.85	0.509684
1515.41	0.291229
1516.96	0.707526
1518.52	0.644283
1520.08	0.179629
1521.63	0.653846
1523.19	0.304809
1524.75	0.509413
1526.3	0.273888
1527.85	0.628295
1529.41	1.13321
1530.96	0.440438
1532.52	0.717179
1534.07	0.823749
1535.62	0.363776
1537.18	0.359348
1538.73	0.601086
1540.28	0.805067
1541.84	0.952278
1543.39	0.365123
1544.94	0.58739
1546.49	0.921688
1548.04	1.21761
1549.59	1.25046
1551.14	1.20856
1552.69	1.26087
1554.25	0.940333
1555.79	1.42495
1557.34	1.05232
1558.89	1.09274
1560.44	1.58302
1561.99	1.3662
1563.54	0.796206
1565.08	1.55153
1566.63	1.52343
1568.18	2.18562
1569.73	1.07428
1571.27	1.84768
1572.82	2.58348
1574.37	1.88175
1575.91	2.58009
1577.46	2.02795
1579	2.111
1580.55	2.10145
1582.09	2.63443
1583.64	2.58962
1585.18	2.75127
1586.73	1.64234
1588.27	1.39306
1589.81	2.34089
1591.35	2.25943
1592.9	2.06499
1594.44	1.73897
1595.98	1.95613
1597.52	2.11767
1599.06	2.31761
1600.61	2.68742
1602.15	2.04467
1603.69	2.50917
1605.23	2.40974
1606.77	1.98915
1608.31	1.82926
1609.85	2.94476
1611.39	1.83986
1612.93	1.65376
1614.46	2.40478
1616	1.33496
1617.54	1.91649
1619.08	1.82423
1620.61	1.35921
1622.15	1.45772
1623.69	1.23887
1625.23	1.37582
1626.76	1.34349
1628.3	1.88976
1629.83	1.70469
1631.37	1.59337
1632.9	2.22883
1634.44	2.32251
1635.97	1.52147
1637.51	1.52414
1639.04	1.84447
1640.57	1.92238
1642.11	1.72011
1643.64	2.03819
1645.17	2.22427
1646.71	2.4648
1648.24	1.55253
1649.77	2.35028
1651.3	1.99757
1652.83	2.18456
1654.36	2.83622
1655.89	2.72832
1657.42	2.63897
1658.96	2.40063
1660.48	2.01292
1662.01	2.105
1663.54	3.00898
1665.07	2.41469
1666.6	2.30161
1668.13	2.35591
1669.66	1.93264
1671.19	1.73258
1672.71	1.92072
1674.24	2.62495
1675.77	3.47587
1677.29	2.50327
1678.82	2.54193
1680.35	2.46898
1681.87	1.86232
1683.4	1.66001
1684.92	1.82505
1686.45	1.66016
1687.97	1.55096
1689.5	1.05763
1691.02	1.13269
1692.54	1.09797
1694.07	1.08151
1695.59	0.516436
1697.11	1.08457
1698.64	0.610794
1700.16	0.191898
1701.68	0.26545
1703.2	0.70282
1704.72	0.210215
1706.25	0.827854
1707.77	0.589699
1709.29	0.715138
1710.81	0.640817
1712.33	0.367344
1713.85	0.61992
1715.37	0.148033
1716.89	0.0748053
1718.41	0.453393
1719.92	0.307598
1721.44	0.523071
1722.96	0.125784
1724.48	0.126435
1725.99	0.326464
1727.51	0.0956621
1729.03	0.333885
1730.55	-0.182109
1732.06	0.373732
1733.58	0.234202
1735.09	0.220217
1736.61	0.0279455
1738.13	0.213095
1739.64	0.380982
1741.15	-0.280791
1742.67	0.395785
1744.18	0.485374
1745.7	0.323195
1747.21	-0.0140886
1748.72	-0.0895767
1750.24	-0.285289
1751.75	0.186699
1753.26	0.0697975
1754.77	0.136003
1756.29	-0.00986099
1757.8	0.413587
1759.31	0.31172
1760.82	-0.126529
1762.33	0.241099
1763.84	0.0340204
1765.35	-0.135309
1766.86	0.0819178
1768.37	-0.0187683
1769.88	0.197764
1771.39	-0.107659
1772.9	-0.401875
1774.4	0.158307
1775.91	-0.201613
1777.42	-0.338265
1778.93	-0.1596
1780.44	0.0526228
1781.94	0.0137787
1783.45	-0.0305777
1784.96	-0.0370712
1786.46	0.251988
1787.97	0.0778284
1789.47	-0.210752
1790.98	-0.0623636
1792.48	-0.0584393
1793.99	-0.067378
1795.49	-0.258455
1797	0.0650225
1798.5	0.0051918
1800.01	0.0941057
1801.51	-0.147653
1803.01	-0.0364981
1804.51	-0.0858173
1806.02	0.073595
1807.52	-0.00476837
1809.02	0.272059
1810.52	-0.00329781
1812.02	-0.270068
1813.52	0.116592
1815.02	0.326704
1816.53	-0.0556965
1818.03	0.0116186
1819.52	0.207699
1821.02	-0.0755072
1822.52	0.253473
1824.02	0.380047
1825.52	-0.255185
1827.02	0.259496
1828.52	-0.0734396
1830.02	0.0562544
1831.51	0.0500784
1833.01	-0.101594
1834.51	0.043334
1836.01	0.0278559
1837.5	0.294085
1839	0.0896015
1840.49	-0.0924664
1841.99	0.136281
1843.49	0.0197678
1844.98	0.0959291
1846.48	0.177898
1847.97	0.071476
1849.47	0.0828438
1850.96	0.342792
1852.45	0.220925
1853.95	-0.0333881
1855.44	0.356913
1856.93	0.118251
1858.42	-0.036931
1859.92	-0.0639763
1861.41	0.0271406
1862.9	0.0702486
1864.39	0.0898666
1865.88	-0.227463
1867.38	-0.0399122
1868.87	0.357928
1870.36	-0.0751772
1871.85	-0.0299282
1873.34	0.240675
1874.83	0.234941
1876.32	-0.123232
1877.81	0.261721
1879.29	0.141706
1880.78	0.153686
1882.27	0.00660133
1882.53	-0.0258017
1884.03	0.0464106
1885.52	0.257164
1887.01	0.344888
1888.51	-0.333945
1890	0.379996
1891.5	0.503009
1892.99	0.59288
1894.48	-0.0802889
1895.97	-0.125996
1897.47	-0.240452
1898.96	-0.0245781
1900.45	0.399084
1901.94	0.0382271
1903.43	0.214801
1904.92	0.285443
1906.41	0.320436
1907.9	-0.0614042
1909.39	0.252018
1910.88	0.514103
1912.37	-0.142397
1913.86	0.190526
1915.35	0.384685
1916.84	0.595743
1918.33	0.511468
1919.81	0.132205
1921.3	0.255388
1922.79	0.292333
1924.28	0.157039
1925.76	0.247981
1927.25	0.44389
1928.73	0.346153
1930.22	0.421508
1931.71	0.530647
1933.19	0.239981
1934.68	0.345724
1936.16	0.103609
1937.65	-0.0357094
1939.13	0.0665789
1940.62	0.514363
1942.1	0.116885
1943.58	-0.0203905
1945.07	-0.173949
1946.55	-0.0684681
1948.03	0.415838
1949.51	0.158265
1951	0.433646
1952.48	0.311977
1953.96	0.258644
1955.44	0.823894
1956.92	0.39281
1958.4	0.632294
1959.88	0.374825
1961.36	0.341059
1962.84	0.238954
1964.32	0.170996
1965.8	-0.0857944
1967.28	0.632547
1968.76	0.0665035
1970.24	0.184299
1971.72	0.0966864
1973.2	0.179812
1974.67	0.228792
1976.15	0.294916
1977.63	0.275954
1979.1	0.274131
1980.58	0.493395
1982.06	0.355204
1983.54	0.59058
1985.01	0.366967
1986.49	0.329985
1987.96	0.631962
1989.44	0.645926
1990.91	0.339044
1992.39	-0.0679865
1993.86	0.794276
1995.33	0.659652
1996.81	0.339735
1998.28	0.492842
1999.75	0.425912
2001.23	0.560888
2002.7	0.442209
2004.17	0.711222
2005.65	0.222069
2007.12	0.980487
2008.59	0.527034
2010.06	0.647085
2011.53	0.380477
2013	0.719894
2014.47	0.250984
2015.94	0.538558
2017.41	0.505449
2018.88	0.219336
2020.35	0.571405
2021.82	0.200838
2023.29	0.133093
2024.76	0.653423
2026.23	0.58755
2027.69	0.389012
2029.16	0.460363
2030.63	0.60019
2032.1	0.774648
2033.56	0.496443
2035.03	0.839374
2036.5	0.476545
2037.96	0.549828
2039.43	0.118517
2040.89	0.477024
2042.36	0.684744
2043.83	0.792426
2045.29	0.682384
2046.75	0.556162
2048.22	0.783855
2049.68	0.320423
2051.15	0.647969
2052.61	0.282647
2054.07	0.353874
2055.54	0.507624
2057	0.828444
2058.46	0.40675
2059.92	0.423152
2061.39	0.355758
2062.85	0.289212
2064.31	0.694921
2065.77	0.49573
2067.23	0.751779
2068.69	0.789655
2070.15	0.827854
2071.61	0.344202
2073.07	0.230691
2074.53	0.689405
2075.99	0.474215
2077.45	0.848033
2078.91	0.716207
2080.37	0.348165
2081.82	0.467875
2083.28	0.40169
2084.74	0.587192
2086.2	0.670865
2087.65	0.535236
2089.11	0.735405
2090.57	0.48162
2092.02	0.899533
2093.48	0.763169
2094.94	0.358349
2096.39	0.70768
2097.85	0.704144
2099.3	0.432176
2100.76	0.310793
2102.21	0.540706
2103.66	0.554023
2105.12	1.06929
2106.57	0.517829
2108.03	0.851732
2109.48	0.352059
2110.93	0.418874
2112.38	0.667603
2113.84	0.747798
2115.29	0.693111
2116.74	1.06981
2118.19	0.432961
2119.64	0.628318
2121.09	0.908303
2122.54	0.941279
2123.99	0.776741
2125.45	0.430482
2126.89	0.846665
2128.34	0.764393
2129.79	0.7636
2131.24	0.96022
2132.69	0.692325
2134.14	1.0864
2135.59	0.67066
2137.04	1.08315
2138.48	1.19986
2139.93	0.459119
2141.38	0.810763
2142.83	1.03148
2144.27	1.26956
2145.72	0.812846
2147.17	0.91837
2148.61	1.30488
2150.06	0.862341
2151.5	1.14765
2152.95	1.31598
2154.39	0.770994
2155.84	1.33558
2157.28	1.35346
2158.73	1.35551
2160.17	1.02758
2161.61	1.11555
2163.06	1.00648
2164.5	1.47945
2165.94	0.99101
2167.38	0.850637
2168.83	0.991646
2170.27	1.39711
2171.71	0.918943
2173.15	0.937795
2174.59	1.48752
2176.03	1.72046
2177.47	1.57108
2178.91	1.22302
2180.36	1.37475
2181.8	1.74352
2183.23	1.0487
2184.67	1.15227
2186.11	1.30585
2187.55	0.976954
2188.99	1.44679
2190.43	1.53392
2191.87	1.00478
2193.3	1.32388
2194.74	0.842458
2196.18	1.40799
2197.62	1.53846
2199.05	0.951973
2200.49	0.730756
2201.93	1.24019
2203.36	1.06932
2204.8	0.98268
2206.23	0.764558
2207.67	0.895029
2209.1	1.02519
2210.54	0.740632
2211.97	0.868908
2213.41	0.814417
2214.84	0.792894
2216.27	0.953545
2217.71	0.620213
2219.14	0.766622
2220.57	0.584048
2222.01	1.02797
2223.44	1.02602
2224.87	0.874439
2226.3	0.852921
2227.73	0.879055
2229.16	0.838114
2230.6	0.796447
2232.03	0.836566
2233.46	0.893221
2234.89	0.62348
2236.32	0.927184
2237.75	0.742261
2239.18	0.91841
2240.61	0.81916
2242.03	0.705454
2243.46	0.641913
2244.89	0.578706
2246.32	0.563759
2247.75	0.416764
2249.17	0.512264
2250.6	0.735772
2252.03	0.647892
2253.46	0.494255
2254.88	0.308679
2256.31	0.595592
2257.73	0.705985
2259.16	0.429799
2260.59	0.870399
2262.01	0.437189
2263.44	0.622277
2264.86	0.499092
2266.29	0.554251
2267.71	0.267031
2269.14	0.51571
2270.56	0.438163
2271.98	0.327495
2273.4	0.509743
2274.83	0.789879
2276.25	0.858511
2277.67	0.601385
2279.09	0.311565
2280.52	0.412884
2281.94	0.399936
2283.36	0.533709
2284.78	0.651253
2286.2	0.589507
2287.62	0.870967
2289.04	0.434368
2290.46	0.210246
2291.88	0.492957
2293.3	0.44893
2294.72	0.666615
2296.14	0.458799
2297.56	0.594626
2298.98	0.517631
2300.4	0.211285
2301.82	0.692002
2303.23	0.418789
2304.65	0.358826
2306.07	0.364401
2307.49	0.320336
2308.9	0.653758
2310.32	0.361959
2311.73	0.118901
2313.15	0.698352
2314.57	0.241611
2315.98	0.460355
2317.4	0.828345
2318.81	0.30701
2320.23	0.626027
2321.64	0.71321
2323.06	0.48493
2324.47	0.501822
2325.88	0.63192
2327.3	0.628276
2328.71	0.854572
2330.12	0.257238
2331.54	0.484537
2332.95	0.811506
2334.36	0.579723
2335.77	0.775994
2337.18	0.494748
2338.6	0.52505
2340.01	0.570582
2341.42	-0.0910463
2342.83	0.330782
2344.24	0.325605
2345.65	0.435421
2347.06	-0.0934134
2348.47	0.245968
2349.88	0.420944
2351.29	0.39873
2352.7	0.0979004
2354.1	0.367777
2355.51	0.457109
2356.92	0.334228
2358.33	0.504325
2359.74	0.138017
2361.14	0.0971565
2362.55	0.55895
2363.96	-0.114052
2365.36	0.0879488
2366.77	0.289679
2368.18	0.604593
2369.58	0.0811548
2370.99	0.220719
2372.39	0.329173
2373.8	0.29358
2375.2	0.483737
2376.61	0.737692
2378.01	0.121945
2379.42	0.758773
2380.82	0.269095
2382.22	0.356242
2383.63	0.218074
2385.03	-0.111966
2386.43	0.206218
2387.84	0.524542
2389.24	0.404961
2390.64	0.334651
2392.04	0.520326
2393.44	0.10216
2394.84	0.416805
2396.25	0.239051
2397.65	-0.0333138
2399.05	0.489467
2400.45	0.61537
2401.85	0.582706
2403.25	0.629498
2404.65	0.818783
2406.05	0.514979
2407.45	0.353232
2408.84	0.301846
2410.24	-0.00344849
2411.64	0.119543
2413.04	0.322387
2414.44	-0.0277643
2415.83	-0.281402
2417.23	-0.280488
2418.63	0.386309
2420.02	0.277678
2421.42	0.358966
2422.82	0.408237
2424.21	0.457234
2425.61	0.743999
2427	0.698554
2428.4	0.114962
2429.8	0.324901
2431.19	0.0755606
2432.58	0.699249
2433.98	0.354178
2435.37	0.484316
2436.77	0.279334
2438.16	0.247577
2439.55	0.484573
2440.95	0.164718
2442.34	0.162016
2443.73	0.111422
2445.12	0.631699
2446.51	0.15254
2447.91	0.180776
2449.3	0.288171
2450.69	0.0790272
2452.08	0.187119
2453.47	0.137672
2454.86	0.642807
2456.25	0.278493
2457.64	0.45236
2459.03	0.167361
2460.42	0.53024
2461.81	0.275536
2463.2	0.0834007
2464.59	0.349003
2465.98	0.187684
2467.36	-0.0683012
2468.75	0.654129
2470.14	0.334816
2471.53	0.393658
2472.92	-0.0208521
2474.3	0.115397
2475.69	0.0620461
2477.08	0.134145
2478.46	0.37882
2479.85	0.215281
2481.23	0.146242
2482.62	0.186913
2484	0.414893
2485.39	-0.0934868
2486.77	0.0073452
2488.16	-0.267624
2489.54	0.0651579
2490.93	0.163474
2492.31	0.16879
2493.69	-0.150913
2495.08	0.0897741
2496.46	-0.118213
2497.84	0.433889
2499.23	-0.0979757
2500.61	0.113
2501.99	0.276525
2503.37	0.191724
2504.75	-0.248581
2506.13	0.158886
2507.52	-0.0196362
2508.9	0.0175924
2510.28	-0.236627
2511.66	-0.152191
2513.04	0.0248098
2514.42	-0.088644
2515.8	-0.0786285
2517.18	0.0391998
2518.55	0.00455189
2519.93	0.229888
2521.31	0.179816
2522.69	0.342835
2524.07	0.138727
2525.45	0.147587
2526.82	-0.194067
2528.2	-0.169607
2529.58	-0.128917
2530.95	0.430023
2532.33	-0.0581312
2533.71	-0.119362
2535.08	0.10878
2536.46	0.184954
2537.84	0.245267
2539.21	0.0160437
2540.59	0.545264
2541.96	0.0872412
2543.34	0.00911522
2544.71	0.265597
2546.08	0.295744
2547.46	0.463665
2548.83	0.19255
2550.2	0.0124626
2551.58	0.408552
2552.95	0.075304
2554.32	0.317709
2555.7	-0.275307
2557.07	0.238668
2558.44	-0.339508
2559.81	0.29563
2561.18	0.294473
2562.55	0.0363483
2563.93	-0.37268
2565.3	-0.0841932
2566.67	0.00755215
2568.04	-0.052145
2569.41	-0.00573254
2570.78	0.268046
2572.15	-0.00376511
2573.51	0.103453
2574.88	0.34723
2576.25	0.196908
2577.62	-0.317397
2578.99	-0.0738144
2580.36	0.0178232
2581.73	-0.209351
2583.09	-0.0729675
2584.46	-0.4371
2585.83	0.275036
2587.19	0.335424
2588.56	0.168678
2589.93	0.274863
2591.29	0.15362
2592.66	0.531951
2594.02	-0.0147266
2595.39	0.301065
2596.75	0.116073
2598.12	-0.0543861
2599.48	0.122719
2600.85	0.118423
2602.21	0.265668
2603.58	0.0964632
2604.94	0.109054
2606.3	0.242522
2607.67	-0.212492
2609.03	-0.276048
2610.39	0.126238
2611.76	0.315934
2613.12	-0.00709438
2614.48	-0.134979
2615.84	0.0972843
2617.2	-0.0904131
2618.56	-0.0524855
2619.92	0.0160809
2621.28	-0.348331
2622.65	-0.114025
2624.01	-0.312822
2625.37	0.264568
2626.72	0.140073
2628.08	0.283652
2629.44	0.0991535
2630.8	-0.100138
2632.16	-0.0910749
2633.52	0.00706959
2634.88	-0.117589
2636.24	-0.227227
2637.59	-0.381139
2638.95	0.338824
2640.31	-0.244097
2641.67	0.164638
2643.02	0.0855713
2644.38	0.228245
2645.74	0.134622
2647.09	-0.239341
2648.45	0.137823
2649.8	0.292789
2651.16	-0.0530615
2652.51	0.365158
2653.87	-0.244186
2655.22	0.10111
2656.58	0.00756741
2657.93	-0.0700378
2659.29	-0.058877
2660.64	0.230504
2661.99	0.183348
2663.35	0.2379
2664.7	-0.233885
2666.05	0.0672998
2667.41	0.090661
2668.76	-0.0899477
2670.11	-0.182675
2671.46	0.452238
2672.81	0.331409
2674.16	0.298525
2675.51	0.0630894
2676.87	-0.229573
2678.22	0.073287
2679.57	-0.0436687
2680.92	-0.145029
2682.27	0.291251
2683.62	0.27933
2684.97	0.152367
2686.31	0.0693474
2687.66	0.160309
2689.01	0.14853
2690.36	-0.155266
2691.71	0.264956
2693.06	0.248138
2694.4	0.230369
2695.75	0.0385466
2697.1	0.093812
2698.45	0.193787
2699.79	0.208569
2701.14	0.109289
2702.49	0.199801
2703.83	0.26248
2705.18	-0.0656662
2706.52	0.403699
2707.87	0.220248
2709.21	-0.0653543
2710.56	-0.0901308
2711.9	0.16084
2713.25	0.150291
2714.59	0.0234051
2715.94	0.0854254
2717.28	0.394613
2718.62	0.165453
2719.97	0.343268
2721.31	0.287858
2722.65	0.188292
2723.99	0.14648
2725.34	-0.0267496
2726.68	0.0616684
2728.02	0.135228
2729.36	0.23766
2730.7	0.601853
2732.04	0.645875
2733.39	0.646361
2734.73	0.10887
2736.07	0.502541
2737.41	0.692717
2738.75	-0.222403
2740.08	0.432913
2741.43	0.0116596
2742.76	0.287714
2744.1	0.0252295
2745.44	0.0964556
2746.78	0.34148
2748.12	-0.0380259
2749.46	0.235765
2750.79	-0.114082
2752.13	0.131017
2753.47	0.274747
2754.81	0.389606
2756.14	0.142464
2757.48	0.011488
2758.81	-0.0322866
2760.15	0.19935
2761.49	0.113058
2762.82	0.417967
2764.16	0.361457
2765.49	0.276023
2766.83	0.103359
2768.16	0.276985
2769.5	-0.114666
2770.83	-0.0449266
2772.16	-0.395373
2773.5	0.0617924
2774.83	0.113997
2776.17	-0.0643692
2777.5	0.333611
2778.83	-0.00185776
2780.16	0.0516958
2781.5	-0.267857
2782.83	0.0876217
2784.16	-0.274479
2785.49	0.0375023
2786.82	-0.0947227
2788.15	0.0743284
2789.49	-0.199537
2790.82	0.128413
2792.15	0.0422993
2793.48	-0.043293
2794.81	-0.100206
2796.14	0.0997906
2797.46	0.15631
2798.79	-0.0447588
2800.12	-0.00344372
2801.45	-0.0337353
2802.78	-0.135458
2804.11	0.0761976
2805.44	-0.140068
2806.76	0.0988235
2808.09	0.251436
2809.42	0.0481234
2810.75	0.171788
2812.07	0.0688438
2813.4	-0.0611963
2814.73	-0.0337286
2816.05	0.037674
2817.38	0.0676537
2818.7	0.339176
2820.03	-0.0696068
2821.36	0.229853
2822.68	0.00428104
2824.01	0.118221
2825.33	0.0476465
2826.65	0.600245
2827.98	0.374454
2829.3	0.305037
2830.63	0.321054
2831.95	0.450541
2833.27	0.353496
2834.6	0.326923
2835.92	0.554619
2837.24	0.626065
2838.56	0.781925
2839.88	0.852654
2841.21	1.46071
2842.53	1.15017
2843.85	1.71669
2845.17	1.90233
2846.49	2.24412
2847.81	2.20476
2849.13	2.2361
2850.45	2.19644
2851.77	2.39652
2853.09	2.24271
2854.41	2.37112
2855.73	2.85251
2857.05	2.5568
2858.37	2.31774
2859.69	2.70012
2861	3.18103
2862.32	3.13907
2863.64	2.9838
2864.96	3.6467
2866.28	3.85782
2867.59	3.87171
2868.91	4.35142
2870.23	4.36625
2871.54	4.69138
2872.86	4.9456
2874.17	4.67746
2875.49	4.7744
2876.81	4.6869
2878.12	5.11914
2879.44	4.73487
2880.75	5.29316
2882.07	4.82631
2883.38	4.55774
2884.69	5.04869
2886.01	4.79614
2887.32	5.06308
2888.63	4.62777
2889.95	4.69676
2891.26	4.76469
2892.57	4.43941
2893.89	5.1929
2895.2	5.26004
2896.51	4.97818
2897.82	5.24349
2899.13	5.31405
2900.44	5.24566
2901.76	5.23379
2903.07	5.6278
2904.38	5.92403
2905.69	6.03875
2907	6.23808
2908.31	5.62708
2909.62	6.66789
2910.93	6.68822
2912.24	6.8345
2913.55	7.06386
2914.85	7.54348
2916.16	7.83881
2917.47	8.00598
2918.78	7.44421
2920.09	7.79168
2921.4	7.98599
2922.7	8.13985
2924.01	8.42129
2925.32	8.64827
2926.62	8.55457
2927.93	9.00609
2929.24	8.89791
2930.54	9.02662
2931.85	9.01487
2933.15	8.87695
2934.46	8.47344
2935.76	8.9366
2937.07	8.77103
2938.37	8.20046
2939.68	8.69224
2940.98	8.2624
2942.29	7.6799
2943.59	7.78358
2944.89	7.42765
2946.2	7.18481
2947.5	6.74661
2948.8	6.79763
2950.11	6.70726
2951.41	6.46064
2952.71	6.3237
2954.01	6.12908
2955.32	6.32597
2956.62	6.34187
2957.92	6.16424
2959.22	6.46581
2960.52	6.01451
2961.82	5.98564
2963.12	5.81732
2964.42	6.23771
2965.72	5.36444
2967.02	4.95209
2968.32	5.11428
2969.62	5.38813
2970.92	4.9024
2972.22	5.51409
2973.51	4.93029
2974.81	4.48688
2976.11	4.28184
2977.41	4.3991
2978.71	4.35948
2980	4.0926
2981.3	4.27459
2982.6	4.06191
2983.9	3.69508
2985.19	3.68105
2986.49	3.4298
2987.78	3.79846
2989.08	3.2829
2990.38	2.95022
2991.67	2.84178
2992.97	2.99916
2994.26	2.7616
2995.56	2.27004
2996.85	2.76077
2998.14	2.36668
2999.44	1.903
3000.73	1.98703
3002.03	1.73516
3003.32	1.44178
3004.61	2.10119
3005.91	1.77955
3007.2	1.76539
3008.49	1.62435
3009.78	1.38457
3011.07	1.24206
3012.37	1.15508
3013.66	1.24952
3014.95	1.19083
3016.24	1.09108
3017.53	1.04784
3018.82	1.14425
3020.11	0.976322
3021.4	0.571781
3022.69	0.736293
3023.98	0.774591
3025.27	0.687188
3026.56	0.391903
3027.85	0.568011
3029.14	0.316245
3030.43	0.453073
3031.71	0.66017
3033	0.605775
3034.29	0.44125
3035.58	0.85562
3036.87	0.52365
3038.15	0.479558
3039.44	0.695057
3040.73	0.990809
3042.01	0.529844
3043.3	0.823802
3044.59	0.583936
3045.87	0.715366
3047.16	0.712057
3048.44	1.01142
3049.73	1.01241
3051.01	0.974049
3052.3	0.977393
3053.58	1.08981
3054.87	0.996768
3056.15	0.888922
3057.43	0.629964
3058.72	1.44664
3060	1.15907
3061.29	1.13066
3062.57	1.0624
3063.85	0.791596
3065.13	1.12057
3066.42	1.12462
3067.7	0.694532
3068.98	0.876568
3070.26	0.541432
3071.54	0.817311
3072.82	0.860579
3074.11	0.630507
3075.39	0.494648
3076.67	0.399204
3077.95	0.426295
3079.23	0.56286
3080.51	0.429443
3081.79	0.514545
3083.07	0.234508
3084.35	0.199188
3085.63	0.163794
3086.9	0.412861
3088.18	0.416789
3089.46	0.284161
3090.74	0.110265
3092.02	-0.226637
3093.29	-0.0072794
3094.57	0.035851
3095.85	0.146885
3097.13	0.162935
3098.4	-0.0922918
3099.68	-0.0902267
3100.95	0.263808
3102.23	-0.0730958
3103.51	-0.09831
3104.78	0.24229
3106.06	-0.0662546
3107.33	0.0861111
3108.61	0.0634117
3109.88	0.325864
3111.16	0.142467
3112.43	0.122101
3113.71	0.237499
3114.98	0.0274682
3116.25	0.0472074
3117.53	0.188023
3118.8	0.395428
3120.07	-0.103691
3121.35	0.0199823
3122.62	0.169916
3123.89	-0.0734768
3125.16	0.18431
3126.44	0.306802
3127.71	0.159
3128.98	-0.0965586
3130.25	0.24312
3131.52	-0.0933185
3132.79	0.124134
3134.06	-0.280437
3135.33	0.165153
3136.6	-0.0785756
3137.87	-0.120465
3139.14	0.0392017
3140.41	0.211685
3141.68	0.168561
3142.95	0.0987072
3144.22	-0.118441
3145.49	-0.20071
3146.76	-0.0679398
3148.02	0.199059
3149.29	-0.337231
