200.43	0.369974
202.246	0.377595
204.061	0.386537
205.875	1.00463
207.688	0.57728
209.501	0.708851
211.316	0.377862
213.129	1.11406
214.941	0.465682
216.753	0.83573
218.566	0.478837
220.377	1.06711
222.188	0.180233
223.999	0.480015
225.809	0.659413
227.618	0.863037
229.43	0.969659
231.239	0.665415
233.047	0.723101
234.855	0.178385
236.663	-0.195826
238.471	0.757879
240.278	0.509079
242.087	-0.436594
243.894	-0.416665
245.7	0.110196
247.506	-0.18478
249.311	0.749093
251.116	-0.0826817
252.921	-0.168505
254.725	0.974359
256.529	0.837829
258.333	1.18437
260.136	-0.250256
261.939	0.557989
263.744	0.187608
265.546	0.806231
267.348	0.244669
269.15	0.0924511
270.951	-0.229301
272.752	0.0988293
274.552	0.497964
276.353	0.72666
278.152	0.881076
279.952	0.551578
281.751	0.340737
283.55	0.272641
285.348	0.107147
287.146	0.421259
288.942	0.830686
290.739	-0.00545788
292.536	0.40586
294.333	0.531246
296.129	0.323418
297.925	0.0452785
299.721	0.341343
301.516	0.613243
303.311	0.239502
305.106	0.318301
306.9	0.276846
308.694	0.592809
310.486	0.480202
312.279	-0.0358782
314.072	0.0929813
315.864	0.390449
317.656	0.451764
319.448	0.062171
321.24	0.00722027
323.029	-0.285411
324.819	0.352748
326.61	0.920267
328.4	0.843248
330.19	0.62206
331.977	0.973453
333.766	0.701279
335.555	0.570321
337.343	-0.0655441
339.131	0.827773
340.917	0.0209599
342.704	0.385288
344.491	0.39087
346.277	0.229813
348.062	0.59494
349.848	0.697896
351.633	0.562228
353.416	0.0681581
355.201	0.7422
356.986	-0.564661
358.77	0.273228
360.552	0.585004
362.335	-0.365841
364.118	0.491144
365.899	-0.221992
367.682	1.20154
369.464	0.463659
371.243	0.176442
373.025	0.622586
374.806	0.287469
376.585	0.472525
378.365	-0.0260773
380.143	0.560934
381.923	0.700958
383.702	0.371792
385.479	0.491104
387.258	-0.0462904
389.034	-0.182771
390.812	-0.153747
392.59	0.0640097
394.365	0.305894
396.142	-0.414649
397.916	0.227069
399.693	0.328511
401.467	-0.486503
403.242	0.107161
405.015	-0.0280418
406.79	0.141325
408.565	0.00481892
410.337	0.290555
412.111	0.928265
413.882	0.510328
415.656	0.1402
417.426	0.545263
419.197	0.270579
420.969	0.207378
422.739	0.496044
424.51	0.502368
426.279	0.132116
428.05	-0.544134
429.819	1.03263
431.589	0.0038681
433.356	-0.367275
435.124	0.294615
436.893	0.745303
438.66	0.139166
440.428	0.611075
442.194	0.681825
443.96	0.445408
445.727	0.605539
447.492	0.600263
449.259	0.477556
451.023	-0.15881
452.787	0.303422
454.553	0.205355
456.316	0.317216
458.079	0.428763
459.844	0.423857
461.606	0.326674
463.368	-0.0244036
465.132	0.394037
466.893	-0.648411
468.654	0.0546827
470.415	0.109215
472.177	0.280863
473.937	0.00960159
475.696	-0.0773678
477.456	0.369195
479.217	0.534309
480.975	0.116015
482.733	0.303483
484.491	0.329144
486.251	0.659739
488.008	0.037323
489.765	-0.560354
491.522	-0.0374088
493.278	0.0899544
495.036	0.802468
496.791	0.954441
498.546	-0.135392
500.301	0.48427
502.056	0.423683
503.81	0.503003
505.566	-0.0768633
507.319	0.728622
509.073	-0.0194559
510.825	0.336283
512.578	0.361019
514.33	0.172405
516.082	0.100046
517.833	0.238133
519.587	0.422076
521.337	0.534567
523.088	-0.0111179
524.838	0.311994
526.588	0.658204
528.337	0.0427799
530.087	-0.00967503
531.835	0.405959
533.584	0.0946503
535.332	0.437482
537.08	0.357622
538.827	0.323118
540.574	0.310751
542.321	0.344141
544.068	0.656209
545.814	0.595707
547.56	0.581972
549.305	0.499002
551.05	-0.0929651
552.795	-0.475252
554.54	0.784036
556.284	-0.0364408
558.027	0.713228
559.771	-0.127661
561.514	0.529791
563.257	0.220746
564.999	0.349519
566.742	0.20317
568.481	0.264485
570.223	0.258019
571.964	0.207141
573.705	0.249793
575.445	-0.233303
577.185	0.707858
578.925	-0.0476093
580.665	-0.205778
582.402	0.141568
584.141	0.373775
585.879	-0.176839
587.617	0.0760813
589.355	0.488885
591.092	0.256527
592.828	0.391726
594.564	0.434718
596.301	-0.46552
598.037	0.336739
599.773	-0.218751
601.506	-0.130882
603.242	-0.22831
604.976	0.201607
606.711	-0.67996
608.443	0.390594
610.177	0.289243
611.91	0.417885
613.644	0.73068
615.374	0.264754
617.107	0.486698
618.839	-0.0707073
620.569	-0.582909
622.3	0.00229073
624.032	0.105753
625.761	0.688777
627.491	-0.0976267
629.221	0.0544138
630.949	0.071929
632.679	-0.341973
634.408	-0.16146
636.135	0.178626
637.863	0.448524
639.592	0.555724
641.318	0.340313
643.045	0.168142
644.77	-0.665339
646.497	0.25452
648.224	0.0155468
649.948	-0.129046
651.674	0.457425
653.398	0.548247
655.123	0.256115
656.846	0.785645
658.57	0.291643
660.293	0.206912
662.017	-0.0166121
663.738	0.8084
665.462	0.374203
667.185	0.463626
668.905	0.140565
670.628	0.252703
672.348	-0.0221138
674.067	0.18618
675.789	-0.0613604
677.508	0.724412
679.228	0.501428
680.947	0.208018
682.667	0.556455
684.385	0.0743685
686.104	0.418768
687.821	0.185871
689.538	-0.0482283
691.256	0.500085
692.972	0.264566
694.69	0.327716
696.406	0.343772
698.121	0.63482
699.837	0.233977
701.552	0.476273
703.268	0.303556
704.982	0.428911
706.695	0.278133
708.41	0.19593
710.123	-0.230218
711.836	0.786269
713.55	0.291009
715.262	0.504859
716.973	0.261636
718.685	1.27357
720.398	0.30104
722.108	1.37985
723.818	0.318145
725.53	1.3723
727.24	1.53851
728.949	0.546634
730.658	1.2111
732.369	0.582886
734.077	0.272487
735.785	0.347004
737.493	0.828186
739.2	0.654948
740.909	1.0691
742.616	0.740592
744.322	1.11185
746.028	0.651653
747.734	1.4081
749.441	1.24346
751.146	0.855375
752.851	1.03101
754.555	0.488247
756.26	0.486849
757.963	0.982386
759.667	1.16461
761.372	1.34832
763.075	1.12677
764.777	1.13042
766.479	0.81658
768.181	1.11084
769.883	1.22212
771.584	1.44432
773.285	1.16747
774.986	1.41018
776.686	1.15601
778.386	1.44587
780.085	0.697104
781.785	1.14817
783.484	1.32815
785.182	1.14489
786.881	0.551679
788.579	1.58493
790.276	1.48282
791.974	1.40048
793.671	1.63262
795.367	1.3677
797.064	1.26198
798.76	1.85634
800.456	2.3394
802.151	1.72122
803.846	1.73404
805.541	1.79167
807.236	1.73602
808.93	2.30791
810.624	0.902908
812.317	1.4947
814.01	2.08493
815.703	2.20377
817.394	1.58424
819.086	1.23399
820.778	1.93404
822.47	1.60698
824.161	1.28127
825.852	0.846072
827.543	1.3267
829.231	1.4091
830.921	1.87335
832.611	1.16015
834.3	0.938993
835.989	1.16475
837.676	0.832673
839.364	1.28059
841.053	1.07944
842.74	1.01084
844.426	1.14278
846.113	2.16951
847.8	0.716892
849.486	0.652466
851.171	1.12787
852.857	0.709631
854.542	0.852464
856.227	0.860692
857.911	1.16009
859.595	0.783236
861.279	0.899327
862.961	0.292959
864.645	1.14967
866.329	0.811166
868.01	0.652201
869.692	1.84591
871.375	0.896749
873.055	0.98487
874.737	1.00524
876.418	0.213215
878.097	0.368937
879.778	0.366592
881.457	1.26689
883.137	0.789417
884.817	0.604304
886.495	0.982059
888.174	0.884156
889.851	0.468971
891.53	0.72882
893.206	1.18963
894.884	0.230852
896.562	1.20598
898.237	0.448956
899.914	1.08334
901.589	0.976047
903.265	0.26422
904.94	0.783165
906.615	1.32335
908.289	1.48391
909.964	1.60052
911.637	0.828047
913.31	0.635707
914.984	0.222056
916.656	0.452573
918.33	0.837714
920.001	0.403025
921.674	0.45635
923.345	0.422329
925.015	0.213281
926.687	0.359571
928.357	0.463328
930.028	0.413836
931.698	0.343021
933.366	0.647542
935.037	0.422788
936.705	0.70579
938.373	0.129522
940.043	0.348454
941.71	0.171596
943.379	0.238138
945.046	1.27572
946.712	0.568624
948.378	1.33849
950.046	-0.0787563
951.711	0.356727
953.376	0.0200386
955.043	-0.248825
956.708	0.0142336
958.372	0.324713
960.036	0.52798
961.701	0.0042429
963.364	0.651204
965.027	0.390475
966.69	-0.13869
968.354	0.656742
970.016	0.454366
971.678	-0.0806599
973.339	0.380109
975	0.134599
976.661	-0.0869856
978.324	0.00255585
979.984	-0.0952568
981.644	-0.193482
983.303	0.603544
984.962	0.690251
986.621	0.597681
988.282	0.23778
989.94	0.363391
991.598	0.267186
993.256	0.0383835
994.913	1.02403
996.57	0.133419
998.227	1.8456
999.884	0.360311
1001.54	0.131701
1003.2	1.06932
1004.85	-0.43574
1006.51	0.346662
1008.16	-0.474981
1009.82	0.438441
1011.47	-0.0743494
1013.12	0.0714607
1014.78	0.30511
1016.43	0.27622
1018.08	0.379187
1019.74	1.18275
1021.39	0.500131
1023.04	-0.180914
1024.69	0.29757
1026.34	0.273951
1028	0.40332
1029.65	0.357252
1031.3	0.965146
1032.95	0.13007
1034.6	1.12683
1036.25	-0.0158443
1037.9	0.105883
1039.55	0.444983
1041.19	1.28451
1042.84	0.559256
1044.49	0.401542
1046.14	-0.0146599
1047.79	0.439933
1049.43	0.266398
1051.08	1.15846
1052.73	0.683065
1054.37	0.577286
1056.02	0.254126
1057.66	0.321842
1059.31	1.17181
1060.95	0.760093
1062.6	0.0213337
1064.24	0.542781
1065.88	0.171686
1067.53	0.451642
1069.17	1.09972
1070.81	-0.0993261
1072.46	-0.125319
1074.1	0.565212
1075.74	0.236861
1077.38	0.365467
1079.02	-0.653947
1080.66	0.43089
1082.3	0.323072
1083.94	0.236062
1085.58	0.429226
1087.22	-0.0298872
1088.86	0.2023
1090.5	0.129439
1092.14	0.0770769
1093.78	0.672149
1095.42	0.0364838
1097.05	0.22194
1098.69	0.236177
1100.33	0.252216
1101.97	-0.00951481
1103.6	0.053442
1105.24	0.569435
1106.87	-0.0754662
1108.51	0.913871
1110.15	0.117169
1111.78	0.0930614
1113.41	0.368045
1115.05	0.362311
1116.68	0.441741
1118.31	0.606919
1119.95	0.00132561
1121.58	-0.388411
1123.21	0.143608
1124.85	0.54786
1126.48	0.460836
1128.11	0.652688
1129.74	0.481763
1131.37	0.0121889
1133	0.227095
1134.63	0.591468
1136.26	0.0788174
1137.89	-0.199656
1139.52	-0.286922
1141.15	0.393453
1142.78	0.112381
1144.41	0.00233364
1146.04	-0.0216379
1147.66	0.0832539
1149.29	0.487255
1150.92	-0.322521
1152.55	-0.237505
1154.17	0.869017
1155.8	0.527227
1157.43	0.0578566
1159.05	0.439918
1160.68	-0.346883
1162.3	0.292258
1163.93	-0.640991
1165.55	-0.0853834
1167.17	0.448727
1168.8	0.0462446
1170.42	-0.251539
1172.05	-0.232383
1173.67	0.0822067
1175.29	-0.517205
1176.91	0.219304
1178.54	0.615934
1180.16	0.335369
1181.78	0.309963
1183.4	-0.137527
1185.02	-0.626704
1186.64	-0.123725
1188.26	0.39798
1189.88	-0.15831
1191.5	0.632056
1193.12	0.283455
1194.74	-0.212049
1196.36	0.0486183
1197.97	0.0163765
1199.59	-0.181332
1201.21	0.480403
1202.83	-0.255032
1204.44	0.181704
1206.06	-0.193359
1207.68	-0.0662413
1209.29	0.582651
1210.91	1.62125e-005
1212.52	-0.167044
1214.14	1.14329
1215.75	-0.403168
1217.37	0.25624
1218.98	0.518438
1220.6	0.157165
1222.21	-0.0367708
1223.82	0.268197
1225.44	0.65706
1227.05	-0.132455
1228.66	0.44536
1230.27	1.02403
1231.88	0.921537
1233.49	0.799733
1235.1	0.493273
1236.72	0.0847082
1238.33	0.566021
1239.94	0.407228
1241.55	0.972493
1243.16	0.420506
1244.76	0.364121
1246.37	1.23787
1247.98	0.80691
1249.59	1.01658
1251.2	1.01898
1252.8	0.98023
1254.41	0.694051
1256.02	0.946799
1257.63	0.807857
1259.23	1.35296
1260.84	0.864384
1262.44	0.727999
1264.05	0.529407
1265.66	0.661826
1267.26	1.18741
1268.87	1.17317
1270.47	1.11632
1272.07	1.51447
1273.68	1.7663
1275.28	1.31217
1276.88	1.6861
1278.48	0.960978
1280.09	1.04329
1281.69	1.6633
1283.29	1.12437
1284.89	1.64111
1286.49	1.41425
1288.09	1.70538
1289.69	1.70812
1291.3	1.83543
1292.9	2.00396
1294.49	1.61383
1296.09	1.16049
1297.69	1.36634
1299.29	2.25097
1300.89	1.52459
1302.49	1.53953
1304.09	1.36814
1305.68	1.1346
1307.28	1.7841
1308.88	1.11888
1310.47	1.95111
1312.07	1.16471
1313.66	1.77143
1315.26	1.11123
1316.86	1.33112
1318.45	1.20446
1320.05	1.28175
1321.64	1.19499
1323.23	1.0864
1324.83	0.99652
1326.42	1.51436
1328.01	1.6653
1329.61	1.12801
1331.2	1.52402
1332.79	1.41651
1334.38	1.75584
1335.98	1.51139
1337.57	1.06616
1339.16	0.721539
1340.75	1.4029
1342.34	0.752703
1343.93	1.44849
1345.52	1.27816
1347.11	0.787506
1348.7	0.940654
1350.29	1.31625
1351.87	1.29406
1353.46	0.554402
1355.05	0.556146
1356.64	1.57738
1358.23	0.659886
1359.81	1.23969
1361.4	1.31884
1362.99	0.658921
1364.57	0.836684
1366.16	0.954703
1367.74	0.734893
1369.33	1.15353
1370.91	1.13559
1372.5	0.880383
1374.08	0.566707
1375.67	0.970066
1377.25	0.478116
1378.83	1.00049
1380.42	0.924828
1382	0.907483
1383.58	0.57059
1385.16	1.14725
1386.75	0.888451
1388.33	0.61018
1389.91	1.22606
1391.49	0.8503
1393.07	1.09058
1394.65	0.894827
1396.23	0.738642
1397.81	0.641273
1399.39	1.03831
1400.97	0.52291
1402.55	0.997148
1404.13	0.798177
1405.7	0.718585
1407.28	0.975963
1408.86	0.325173
1410.44	0.643189
1412.01	0.921492
1413.59	1.39639
1415.17	0.922819
1416.74	1.19818
1418.32	0.723832
1419.89	0.90039
1421.47	0.880977
1423.05	0.902591
1424.62	1.1818
1426.19	1.18679
1427.77	1.36952
1429.34	0.607197
1430.92	1.22171
1432.49	1.75612
1434.06	1.44325
1435.63	1.72006
1437.2	1.68233
1438.78	1.58644
1440.35	1.72754
1441.92	1.92863
1443.49	1.79641
1445.06	2.49009
1446.63	1.96541
1448.2	2.1878
1449.77	2.35156
1451.34	2.10299
1452.91	1.79594
1454.48	2.02029
1456.05	1.67411
1457.62	1.68132
1459.18	2.25789
1460.75	2.04531
1462.32	1.53558
1463.89	1.63402
1465.45	1.63286
1467.02	2.10273
1468.59	1.49265
1470.15	0.942996
1471.72	0.473415
1473.28	0.730842
1474.85	0.636002
1476.41	1.09061
1477.98	0.996289
1479.54	0.705902
1481.11	0.807469
1482.67	0.889317
1484.23	0.853428
1485.8	1.15022
1487.36	0.466798
1488.92	0.780936
1490.48	0.975452
1492.05	0.326676
1493.61	0.868287
1495.17	0.665456
1496.73	0.656812
1498.29	0.511692
1499.85	0.42579
1501.41	0.127631
1502.97	0.277328
1504.53	0.292011
1506.09	-0.041503
1507.65	0.591966
1509.2	0.836706
1510.76	0.0376978
1512.32	0.665831
1513.88	-0.0552998
1515.44	0.647974
1516.99	0.370998
1518.55	0.536514
1520.1	-0.102219
1521.66	0.676589
1523.22	0.688832
1524.77	0.528394
1526.33	1.16813
1527.88	0.814994
1529.44	0.291116
1530.99	0.49018
1532.55	0.461673
1534.1	0.737131
1535.65	0.559036
1537.21	0.495699
1538.76	0.659703
1540.31	0.842643
1541.86	0.271795
1543.42	1.13227
1544.97	1.01316
1546.52	0.969183
1548.07	1.4317
1549.62	1.08724
1551.17	1.062
1552.72	0.60708
1554.27	1.66786
1555.82	0.916866
1557.37	0.504682
1558.92	1.04646
1560.47	1.64593
1562.02	0.959878
1563.57	1.05855
1565.11	0.952606
1566.66	1.16398
1568.21	1.72979
1569.75	1.36199
1571.3	0.807056
1572.85	1.83848
1574.39	1.73105
1575.94	1.5303
1577.49	1.5351
1579.03	1.91374
1580.58	1.73298
1582.12	2.03859
1583.67	1.76617
1585.21	1.43833
1586.75	1.69035
1588.3	0.914005
1589.84	1.27821
1591.38	1.71711
1592.93	1.63149
1594.47	1.82643
1596.01	1.51565
1597.55	2.08598
1599.09	2.26373
1600.63	1.69209
1602.18	1.92743
1603.72	2.163
1605.26	1.55263
1606.8	1.33496
1608.34	1.96094
1609.87	1.51312
1611.41	1.36357
1612.95	1.4186
1614.49	1.54722
1616.03	1.075
1617.57	1.0537
1619.11	1.63311
1620.64	0.734118
1622.18	0.529813
1623.72	1.73049
1625.25	1.65801
1626.79	1.07943
1628.32	1.60364
1629.86	1.3405
1631.4	0.814863
1632.93	1.78364
1634.47	1.27687
1636	1.62973
1637.53	1.16267
1639.07	1.77793
1640.6	1.08823
1642.14	1.16222
1643.67	1.57016
1645.2	0.89705
1646.73	1.69291
1648.27	1.39095
1649.8	1.47974
1651.33	1.43954
1652.86	1.43777
1654.39	1.75239
1655.92	1.78946
1657.45	1.84498
1658.98	0.992074
1660.51	1.13826
1662.04	1.22728
1663.57	1.6477
1665.1	1.40188
1666.63	2.17185
1668.16	1.98286
1669.69	1.33493
1671.21	1.33406
1672.74	1.90535
1674.27	1.37195
1675.79	1.15157
1677.32	1.4458
1678.85	1.22356
1680.37	1.31298
1681.9	0.758366
1683.42	0.865148
1684.95	1.08194
1686.47	0.381862
1688	1.07601
1689.52	0.725623
1691.05	0.888515
1692.57	0.64871
1694.1	0.555399
1695.62	0.992175
1697.14	0.71561
1698.66	0.658129
1700.19	0.636764
1701.71	1.1073
1703.23	0.227947
1704.75	0.696912
1706.27	0.43683
1707.79	0.176887
1709.32	0.33505
1710.83	-0.051424
1712.35	-0.582144
1713.88	0.174505
1715.39	0.477402
1716.91	0.562669
1718.43	0.575358
1719.95	0.064271
1721.47	-0.283437
1722.99	0.235312
1724.5	0.159747
1726.02	0.265621
1727.54	0.498728
1729.06	0.210825
1730.57	0.517421
1732.09	0.163443
1733.61	0.775084
1735.12	0.404877
1736.64	0.287336
1738.15	0.420156
1739.67	-0.337848
1741.18	0.276129
1742.7	0.0745811
1744.21	0.388791
1745.72	0.266353
1747.24	0.196015
1748.75	0.204358
1750.26	0.0605583
1751.78	0.295117
1753.29	0.0515223
1754.8	0.606252
1756.31	0.136049
1757.82	-0.145288
1759.34	0.255654
1760.85	0.398159
1762.36	-0.246932
1763.87	0.341019
1765.38	-0.150081
1766.89	0.46244
1768.4	0.39179
1769.91	0.321613
1771.41	0.134316
1772.92	0.0135813
1774.43	-0.088501
1775.94	-0.0905476
1777.45	-0.251966
1778.96	0.237391
1780.46	0.0843019
1781.97	0.0674858
1783.48	-0.0123529
1784.98	0.0562134
1786.49	0.21486
1788	0.309142
1789.5	-0.0863113
1791.01	0.475636
1792.51	-0.072401
1794.01	0.388567
1795.52	0.163644
1797.02	0.26144
1798.53	-0.315312
1800.03	0.114861
1801.54	0.0651817
1803.04	-0.206083
1804.54	-0.10701
1806.04	0.0411854
1807.54	-0.0272083
1809.05	-0.0978298
1810.55	0.193374
1812.05	0.207702
1813.55	0.0768995
1815.05	0.316236
1816.55	0.114075
1818.05	0.298923
1819.55	-0.150537
1821.05	0.21239
1822.55	0.197644
1824.05	0.153439
1825.55	0.106624
1827.05	-0.0116959
1828.55	0.177629
1830.04	0.285146
1831.54	0.355408
1833.04	0.107929
1834.54	0.0862436
1836.03	0.0516186
1837.53	-0.0582981
1839.03	0.24847
1840.52	-0.239773
1842.02	0.214908
1843.51	-0.111873
1845.01	0.232299
1846.5	0.00747395
1848	0.00657654
1849.49	-0.00680828
1850.99	0.128836
1852.48	0.189393
1853.97	0.342299
1855.47	0.211706
1856.96	0.0963173
1858.45	0.0166826
1859.94	-0.05443
1861.44	-0.000361443
1862.93	0.270996
1864.42	0.271152
1865.91	0.19386
1867.4	0.137099
1868.89	0.207883
1870.38	0.135526
1871.87	0.134051
1873.36	0.152729
1874.85	0.186958
1876.34	0.0711432
1877.83	0.107418
1879.32	-0.143471
1880.81	-0.371794
1882.3	-0.00591278
1882.56	0.0793476
1884.06	-0.0964508
1885.55	0.110455
1887.04	0.264044
1888.54	0.399558
1890.03	-0.19558
1891.52	0.289048
1893.02	0.288189
1894.51	0.463058
1896	0.50044
1897.49	0.138679
1898.99	0.0897474
1900.48	0.422496
1901.97	0.301263
1903.46	0.508673
1904.95	0.245084
1906.44	0.380552
1907.93	0.533227
1909.42	0.183046
1910.91	-0.113853
1912.4	-0.114799
1913.89	-0.0458279
1915.38	0.370006
1916.86	0.0745153
1918.35	-0.394691
1919.84	0.15821
1921.33	-0.0687609
1922.82	0.0857658
1924.3	-0.0705128
1925.79	0.172532
1927.28	0.053091
1928.76	0.193978
1930.25	0.594592
1931.74	0.145855
1933.22	0.145875
1934.71	0.109481
1936.19	0.0368309
1937.67	-0.209813
1939.16	-0.111012
1940.64	0.21243
1942.13	-0.257481
1943.61	-0.139415
1945.09	-0.00335884
1946.58	0.27088
1948.06	-0.248034
1949.54	0.128463
1951.03	-0.0301352
1952.51	0.120256
1953.99	0.459021
1955.47	-0.628958
1956.95	-0.0494289
1958.43	0.101023
1959.91	0.440748
1961.39	0.180588
1962.87	0.349336
1964.35	0.020895
1965.83	0.411463
1967.31	-0.0548401
1968.79	0.299757
1970.27	-0.132958
1971.75	0.271589
1973.22	-0.160819
1974.7	0.34554
1976.18	-0.0178547
1977.66	0.300708
1979.13	-0.30019
1980.61	0.171282
1982.09	-0.173966
1983.56	0.126438
1985.04	0.103564
1986.52	0.148311
1987.99	-0.0781641
1989.47	0.237901
1990.94	-0.0549936
1992.41	0.262275
1993.89	-0.0283413
1995.36	0.0369711
1996.84	0.254711
1998.31	-0.186378
1999.78	0.0645647
2001.26	0.0615768
2002.73	0.142423
2004.2	-0.130954
2005.67	-0.150973
2007.15	0.0318737
2008.62	0.215546
2010.09	-0.155555
2011.56	-0.138866
2013.03	0.315469
2014.5	0.213888
2015.97	0.178855
2017.44	-0.00844383
2018.91	-0.0115004
2020.38	0.136127
2021.85	0.165912
2023.32	0.330292
2024.79	-0.41068
2026.25	-0.0765038
2027.72	-0.0261555
2029.19	0.394678
2030.66	0.112392
2032.13	-0.0180387
2033.59	0.170877
2035.06	0.460662
2036.53	0.0110884
2037.99	-0.220835
2039.46	0.202221
2040.92	-0.0133924
2042.39	-0.0437565
2043.85	0.0443535
2045.32	0.503634
2046.78	0.0213232
2048.25	0.16207
2049.71	0.218358
2051.18	0.695166
2052.64	0.411702
2054.1	-0.0592346
2055.56	0.193261
2057.03	0.00597477
2058.49	0.323558
2059.95	-0.134062
2061.42	0.318298
2062.88	0.552383
2064.34	0.215211
2065.8	0.468136
2067.26	0.368509
2068.72	0.218978
2070.18	0.726222
2071.64	0.476065
2073.1	0.141502
2074.56	0.0423517
2076.02	0.245978
2077.48	0.146123
2078.94	0.180588
2080.39	0.568193
2081.85	0.685754
2083.31	0.533244
2084.77	0.279078
2086.22	0.697184
2087.68	0.35768
2089.14	0.0684824
2090.6	0.686409
2092.05	0.1956
2093.51	0.376382
2094.96	0.30515
2096.42	0.65248
2097.87	0.546468
2099.33	1.0257
2100.78	0.533975
2102.24	0.962273
2103.69	0.722933
2105.15	0.418484
2106.6	0.716312
2108.05	0.581404
2109.51	1.03051
2110.96	0.495257
2112.41	1.04209
2113.86	1.1036
2115.32	1.22983
2116.77	0.739801
2118.22	1.36383
2119.67	1.29128
2121.12	0.789624
2122.57	0.970371
2124.02	0.820938
2125.47	0.771687
2126.92	1.41849
2128.37	1.0031
2129.82	1.14986
2131.27	1.36134
2132.72	1.19102
2134.17	0.905094
2135.62	1.36436
2137.06	1.22984
2138.51	1.29571
2139.96	1.281
2141.41	1.49949
2142.85	1.50442
2144.3	1.49353
2145.75	1.40001
2147.19	1.67035
2148.64	1.59234
2150.09	1.6293
2151.53	1.66516
2152.97	1.58394
2154.42	1.96574
2155.86	1.99906
2157.31	2.03247
2158.75	1.95077
2160.2	1.8043
2161.64	1.84203
2163.08	1.61658
2164.53	1.4921
2165.97	1.63398
2167.41	2.02516
2168.86	1.95016
2170.3	1.75662
2171.74	2.1096
2173.18	1.51221
2174.62	2.04447
2176.06	2.09365
2177.5	1.74401
2178.94	1.7777
2180.38	1.39684
2181.82	2.11427
2183.26	1.75161
2184.7	1.73843
2186.14	1.25952
2187.58	1.6956
2189.02	1.61598
2190.46	1.83594
2191.89	1.6228
2193.33	1.45874
2194.77	1.87594
2196.21	1.32555
2197.64	1.50546
2199.08	1.15125
2200.52	1.09551
2201.95	1.33854
2203.39	1.6649
2204.83	1.57754
2206.26	1.50799
2207.7	1.57161
2209.13	1.30377
2210.57	1.06843
2212	1.39466
2213.43	1.00893
2214.87	1.11912
2216.3	1.14729
2217.73	1.04467
2219.17	1.4052
2220.6	1.13996
2222.03	1.35294
2223.47	0.889531
2224.9	1.16604
2226.33	1.17709
2227.76	1.18633
2229.19	0.652209
2230.62	0.709002
2232.05	0.798229
2233.49	0.85482
2234.91	1.45168
2236.34	0.562103
2237.77	0.785663
2239.2	0.570396
2240.63	0.634653
2242.06	0.929078
2243.49	0.65393
2244.92	0.150747
2246.35	0.266702
2247.78	0.332129
2249.2	0.395357
2250.63	0.163052
2252.06	0.661826
2253.48	0.784847
2254.91	0.485575
2256.34	0.545438
2257.76	0.348051
2259.19	0.526804
2260.61	0.351584
2262.04	0.470887
2263.46	0.348289
2264.89	0.242083
2266.31	0.476847
2267.74	0.53209
2269.16	0.553882
2270.59	0.184181
2272.01	0.351129
2273.43	0.517983
2274.85	0.45694
2276.28	0.396086
2277.7	0.335381
2279.12	0.388824
2280.54	0.1161
2281.97	0.104091
2283.39	0.222515
2284.81	0.194169
2286.23	0.508819
2287.65	0.595434
2289.07	0.584563
2290.49	0.230958
2291.91	0.302377
2293.33	0.0959454
2294.75	0.200183
2296.17	0.369905
2297.59	-0.279064
2299.01	0.169107
2300.42	0.273671
2301.84	-0.113317
2303.26	0.631621
2304.68	0.12996
2306.1	0.202528
2307.51	-0.250995
2308.93	0.0671597
2310.35	0.0889893
2311.76	0.126897
2313.18	0.279982
2314.59	0.0714674
2316.01	-0.0212145
2317.43	0.150384
2318.84	-0.0235758
2320.26	-0.131997
2321.67	0.055419
2323.08	0.340115
2324.5	0.193412
2325.91	0.357988
2327.33	0.932986
2328.74	0.550724
2330.15	0.0867558
2331.56	0.348536
2332.98	0.282086
2334.39	0.298803
2335.8	-0.11196
2337.21	0.101976
2338.62	0.232606
2340.04	-0.0652523
2341.45	-0.0516853
2342.86	0.0270319
2344.27	-0.189574
2345.68	-0.0122938
2347.09	0.197805
2348.5	0.113037
2349.91	-0.10288
2351.31	0.285553
2352.72	-0.144236
2354.13	0.0132322
2355.54	-0.254066
2356.95	0.081315
2358.36	-0.218347
2359.76	-0.241056
2361.17	0.629008
2362.58	-0.107819
2363.98	0.0961418
2365.39	-0.153371
2366.8	-0.0304651
2368.21	-0.0848036
2369.61	-0.0573692
2371.02	0.164743
2372.42	-0.272606
2373.83	0.0482731
2375.23	-0.178026
2376.64	0.35167
2378.04	-0.31017
2379.44	0.232449
2380.85	0.43537
2382.25	0.155399
2383.66	0.0673609
2385.06	0.0752869
2386.46	0.163495
2387.86	0.252406
2389.26	0.0234804
2390.67	0.0829477
2392.07	-0.015707
2393.47	-0.0655174
2394.87	0.330837
2396.27	0.29834
2397.67	0.139365
2399.07	0.0128336
2400.47	-0.0813828
2401.87	0.317125
2403.27	0.334408
2404.67	-0.140918
2406.07	0.0498257
2407.47	0.302993
2408.87	0.237958
2410.27	0.109262
2411.67	0.29779
2413.07	-0.0989618
2414.46	0.360739
2415.86	0.204379
2417.26	0.508476
2418.66	0.211877
2420.05	0.0738983
2421.45	0.07831
2422.84	0.0348434
2424.24	0.0544786
2425.64	-0.179356
2427.03	-0.285965
2428.43	0.115527
2429.82	-0.0527296
2431.22	0.0968933
2432.61	0.357915
2434.01	0.253351
2435.4	0.00459862
2436.79	0.310383
2438.19	-0.0367498
2439.58	0.536259
2440.97	0.218771
2442.37	0.0914469
2443.76	0.233695
2445.15	-0.147767
2446.54	-0.00586224
2447.93	-0.0543785
2449.33	0.213937
2450.72	-0.0085783
2452.11	0.21278
2453.5	0.102497
2454.89	-0.117627
2456.28	0.0742655
2457.67	0.108255
2459.06	0.521676
2460.45	0.206947
2461.84	-0.0136108
2463.23	0.334178
2464.62	0.112361
2466	-0.172732
2467.39	0.189528
2468.78	-0.000819206
2470.17	0.345008
2471.55	0.232918
2472.94	0.136015
2474.33	-0.134681
2475.72	0.129208
2477.1	0.109412
2478.49	0.0896044
2479.87	0.242603
2481.26	0.301456
2482.65	0.140807
2484.03	0.214753
2485.42	0.27204
2486.8	0.124973
2488.19	0.226812
2489.57	-0.233349
2490.95	-0.303367
2492.34	0.311236
2493.72	-0.192439
2495.1	-0.197405
2496.49	0.403319
2497.87	-0.188617
2499.25	0.0253725
2500.63	0.254192
2502.02	0.0491428
2503.4	0.0905304
2504.78	-0.27008
2506.16	-0.183689
2507.54	0.256256
2508.92	-0.350014
2510.3	0.0743399
2511.68	0.084239
2513.06	0.202198
2514.44	0.397398
2515.82	-0.110857
2517.2	0.422453
2518.58	-0.420247
2519.96	-0.176989
2521.34	-0.117515
2522.72	0.0480976
2524.1	0.105896
2525.47	-0.111414
2526.85	0.387065
2528.23	0.0635395
2529.6	0.0760908
2530.98	-0.0921946
2532.36	0.288274
2533.74	0.138216
2535.11	-0.284593
2536.49	-0.0845518
2537.86	0.357859
2539.24	0.0246
2540.61	-0.0511866
2541.99	0.343229
2543.36	0.0397501
2544.74	-0.141376
2546.11	0.133774
2547.49	-0.151118
2548.86	0.292957
2550.23	0.282008
2551.61	0.042922
2552.98	-0.0756826
2554.35	0.21445
2555.72	0.185
2557.09	-0.13316
2558.47	0.276569
2559.84	0.292211
2561.21	0.202291
2562.58	-0.235522
2563.95	0.100133
2565.32	0.29981
2566.69	0.454276
2568.06	0.245124
2569.43	0.0208006
2570.8	0.0844374
2572.17	0.375486
2573.54	0.120941
2574.91	0.351569
2576.28	0.354846
2577.65	0.0244751
2579.02	-0.169691
2580.39	0.0603647
2581.75	-0.0890522
2583.12	0.140228
2584.49	0.323758
2585.85	0.128244
2587.22	0.251181
2588.59	0.192418
2589.95	0.0883064
2591.32	0.165919
2592.68	0.0612307
2594.05	0.137566
2595.42	0.0311337
2596.78	-0.0762148
2598.15	0.224236
2599.51	0.206487
2600.88	0.113317
2602.24	0.020751
2603.6	0.170449
2604.97	0.471468
2606.33	-0.102432
2607.69	0.288792
2609.06	-0.0295248
2610.42	0.193563
2611.78	-0.292314
2613.14	0.304142
2614.51	-0.00257111
2615.87	0.216286
2617.23	-0.0147667
2618.59	0.0846834
2619.95	0.0799818
2621.31	0.300283
2622.67	0.0575943
2624.03	-0.199483
2625.39	0.11076
2626.75	0.122098
2628.11	-0.164926
2629.47	0.12888
2630.83	0.0649614
2632.19	0.268617
2633.55	0.234236
2634.91	-0.0969515
2636.26	-0.249678
2637.62	-0.0761814
2638.98	0.111892
2640.34	-0.158801
2641.69	0.0146608
2643.05	-0.195952
2644.41	0.435343
2645.76	0.151045
2647.12	0.220538
2648.48	0.230313
2649.83	0.195114
2651.19	-0.0465031
2652.54	-0.111692
2653.9	-0.0885077
2655.25	0.0086422
2656.6	-0.0251226
2657.96	0.17645
2659.31	-0.00168037
2660.67	-0.340082
2662.02	0.140088
2663.37	0.107955
2664.73	0.14804
2666.08	0.245668
2667.43	0.0220633
2668.78	0.0317163
2670.14	0.0561743
2671.49	0.153809
2672.84	0.542525
2674.19	0.0891562
2675.54	0.188377
2676.89	0.418644
2678.24	-0.148279
2679.59	0.141412
2680.94	-0.0754118
2682.29	0.607831
2683.64	0.248365
2684.99	0.54241
2686.34	0.271208
2687.69	-0.10197
2689.04	-0.0119076
2690.39	-0.112173
2691.74	-0.330246
2693.08	0.407935
2694.43	0.0279484
2695.78	-0.163395
2697.13	0.124063
2698.47	-0.383898
2699.82	0.195852
2701.17	-0.323257
2702.51	0.288645
2703.86	-0.126865
2705.21	0.110143
2706.55	0.158848
2707.9	-0.227993
2709.24	0.153854
2710.58	0.0563841
2711.93	0.278183
2713.27	0.282009
2714.62	0.489268
2715.96	0.158599
2717.3	0.438448
2718.65	0.427233
2719.99	0.342877
2721.33	0.418123
2722.68	0.0999165
2724.02	0.101419
2725.36	0.335389
2726.71	0.437974
2728.05	0.249147
2729.39	0.249294
2730.73	-0.0562577
2732.07	0.292915
2733.41	-0.0852551
2734.75	0.249545
2736.09	0.409951
2737.43	0.366856
2738.77	0.367361
2740.11	0.382154
2741.45	0.585482
2742.79	0.206594
2744.13	0.350389
2745.47	-0.0295219
2746.81	0.0841846
2748.14	0.371792
2749.48	-0.109776
2750.82	0.22141
2752.16	0.0306683
2753.49	0.115643
2754.83	0.273165
2756.17	0.170012
2757.5	0.096036
2758.84	0.123679
2760.18	-0.224614
2761.51	0.107797
2762.85	0.368239
2764.18	0.238287
2765.52	-0.0797653
2766.85	0.0936575
2768.19	-0.00869274
2769.52	0.234782
2770.86	-0.144784
2772.19	-0.308561
2773.52	0.0175428
2774.86	0.241657
2776.19	0.335711
2777.52	-0.0737386
2778.86	-0.22316
2780.19	0.303504
2781.52	0.226624
2782.85	0.10687
2784.19	0.0302334
2785.52	-0.189638
2786.85	-0.00800991
2788.18	-0.155353
2789.51	-0.173034
2790.84	-0.10405
2792.17	0.251582
2793.5	-0.135855
2794.83	0.248662
2796.16	0.0182676
2797.49	0.073143
2798.82	0.270211
2800.15	0.152714
2801.48	-0.178917
2802.81	-0.0256505
2804.13	0.0559473
2805.46	-0.247516
2806.79	0.331252
2808.12	0.311245
2809.45	-0.192341
2810.77	-0.0844908
2812.1	0.0805435
2813.43	-0.136458
2814.75	-0.366068
2816.08	0.213724
2817.41	0.397586
2818.73	0.0150642
2820.06	-0.0556436
2821.38	0.128329
2822.71	0.0565367
2824.03	0.182517
2825.36	-0.0601668
2826.68	0.277906
2828	0.205753
2829.33	0.304051
2830.65	0.105515
2831.98	0.360166
2833.3	0.459028
2834.62	0.444322
2835.94	0.570645
2837.27	0.300211
2838.59	0.467987
2839.91	0.833456
2841.23	1.01505
2842.55	1.42315
2843.87	1.2382
2845.2	1.18124
2846.52	1.32275
2847.84	1.59184
2849.16	1.73375
2850.48	1.60681
2851.8	1.57829
2853.12	1.43618
2854.44	1.29372
2855.76	1.54671
2857.08	1.60184
2858.39	1.61464
2859.71	1.72626
2861.03	1.54115
2862.35	1.68048
2863.67	1.80526
2864.98	1.92972
2866.3	1.70144
2867.62	1.91071
2868.94	2.13441
2870.25	2.14699
2871.57	2.202
2872.88	2.4822
2874.2	2.3811
2875.52	2.5466
2876.83	3.04875
2878.15	2.53644
2879.46	2.58695
2880.78	2.75016
2882.09	2.9
2883.41	2.5733
2884.72	2.86555
2886.03	2.58271
2887.35	2.70706
2888.66	3.08346
2889.97	2.46292
2891.29	2.27666
2892.6	2.77672
2893.91	2.98198
2895.22	3.04741
2896.54	2.97365
2897.85	3.06893
2899.16	2.81542
2900.47	3.16431
2901.78	3.01002
2903.09	2.82797
2904.4	2.96778
2905.71	3.49949
2907.02	3.03867
2908.33	3.48787
2909.64	3.23846
2910.95	3.57727
2912.26	4.00019
2913.57	3.82049
2914.88	3.94734
2916.19	4.15645
2917.5	4.29391
2918.81	4.09451
2920.11	4.42657
2921.42	4.17189
2922.73	4.14223
2924.04	4.71501
2925.34	4.50615
2926.65	4.68929
2927.96	4.77463
2929.26	4.6359
2930.57	4.53855
2931.87	5.16765
2933.18	4.3427
2934.49	4.62203
2935.79	4.67783
2937.1	4.8875
2938.4	4.52442
2939.7	4.88826
2941.01	4.33037
2942.31	4.30432
2943.62	4.3773
2944.92	4.13012
2946.22	3.89792
2947.53	3.6941
2948.83	3.62985
2950.13	3.85846
2951.43	3.10523
2952.74	3.34434
2954.04	3.21807
2955.34	3.2035
2956.64	3.35775
2957.94	3.44399
2959.24	3.3089
2960.54	3.52662
2961.84	3.25596
2963.15	2.99966
2964.45	3.1215
2965.75	2.75045
2967.05	3.24882
2968.34	3.02928
2969.64	2.61201
2970.94	2.77111
2972.24	2.73363
2973.54	2.59795
2974.84	2.29326
2976.14	2.35389
2977.43	2.15985
2978.73	1.93605
2980.03	1.99222
2981.33	2.1034
2982.62	2.08739
2983.92	1.60778
2985.22	1.52309
2986.51	1.93167
2987.81	1.56877
2989.11	1.69864
2990.4	1.47744
2991.7	1.48061
2992.99	1.11739
2994.29	1.02006
2995.58	1.21668
2996.88	1.08954
2998.17	0.836033
2999.46	0.667152
3000.76	0.218487
3002.05	0.639701
3003.34	0.430492
3004.64	0.837868
3005.93	0.600563
3007.22	0.516831
3008.52	0.740181
3009.81	0.459061
3011.1	0.345275
3012.39	0.370881
3013.68	0.53596
3014.97	0.352708
3016.27	0.0728865
3017.56	0.100409
3018.85	0.239702
3020.14	0.406732
3021.43	0.295172
3022.72	0.266276
3024.01	0.0422144
3025.3	0.483301
3026.59	-0.226186
3027.88	0.532831
3029.16	0.379186
3030.45	0.0890884
3031.74	-0.0749741
3033.03	0.259073
3034.32	0.165384
3035.6	0.112633
3036.89	0.127623
3038.18	0.0444613
3039.47	0.16609
3040.75	0.0110722
3042.04	0.171278
3043.33	0.34473
3044.61	0.231147
3045.9	0.119485
3047.18	0.160434
3048.47	0.353801
3049.75	0.344394
3051.04	-0.1274
3052.32	0.384148
3053.61	0.104282
3054.89	0.342271
3056.18	0.320027
3057.46	0.324011
3058.74	0.572463
3060.03	0.194074
3061.31	0.251964
3062.59	0.256362
3063.88	0.153367
3065.16	0.0247307
3066.44	0.305318
3067.72	0.36939
3069	0.161906
3070.29	0.266953
3071.57	0.085567
3072.85	0.134251
3074.13	-0.0357561
3075.41	0.0788636
3076.69	-0.0649161
3077.97	0.0497627
3079.25	-0.0923748
3080.53	0.0790114
3081.81	0.387536
3083.09	0.0461726
3084.37	-0.00965977
3085.65	-0.160412
3086.93	-0.0672941
3088.21	-0.354848
3089.49	0.117064
3090.76	0.0185256
3092.04	0.0691571
3093.32	-0.0563688
3094.6	0.26599
3095.87	0.23601
3097.15	-0.0920706
3098.43	-0.0134449
3099.7	-0.0839925
3100.98	0.292474
3102.26	0.303196
3103.53	0.368382
3104.81	0.298736
3106.08	0.0404201
3107.36	0.392051
3108.63	0.203422
3109.91	0.381302
3111.18	0.262403
3112.46	0.171302
3113.73	0.202534
3115	0.166012
3116.28	0.142624
3117.55	0.32189
3118.83	0.0661387
3120.1	0.568848
3121.37	0.0672102
3122.64	0.161691
3123.92	0.310137
3125.19	0.120205
3126.46	0.404611
3127.73	0.418825
3129	0.555317
3130.27	0.259443
3131.55	0.369422
3132.82	0.425191
3134.09	0.305022
3135.36	0.440989
3136.63	0.333482
3137.9	0.320045
3139.17	0.158163
3140.44	0.548259
3141.71	0.305805
3142.98	0.265654
3144.24	0.521432
3145.51	0.361638
3146.78	0.283224
3148.05	0.473534
3149.32	0.79815
