200.407	0.213968
202.221	0.201982
204.035	0.191275
205.849	0.35226
207.665	0.00334263
209.478	0.165083
211.291	0.909015
213.104	0.971598
214.916	0.354259
216.73	0.343595
218.541	0.575629
220.352	0.83258
222.163	0.1956
223.973	0.358471
225.785	0.232207
227.595	0.565557
229.404	0.0777073
231.213	0.193551
233.022	0.38175
234.83	0.184702
236.638	0.109949
238.448	0.905347
240.255	0.185187
242.062	-0.0503435
243.868	-0.28429
245.675	-0.276701
247.48	-0.0287104
249.286	0.55525
251.091	0.122346
252.896	0.387149
254.702	-0.36292
256.506	-0.196143
258.31	-0.221222
260.113	-0.24435
261.916	0.361082
263.719	0.197659
265.521	-0.301669
267.323	0.163534
269.125	0.195081
270.926	0.129725
272.727	-0.539254
274.527	0.430185
276.328	0.409702
278.127	0.363518
279.927	-0.334726
281.726	0.21771
283.525	0.430963
285.323	-0.00612545
287.121	0.685162
288.919	-0.255176
290.716	0.388311
292.513	-0.188416
294.31	0.266093
296.104	0.267642
297.9	-0.494179
299.696	0.0115871
301.491	-0.199409
303.286	0.520322
305.081	0.379255
306.875	0.0706053
308.669	0.644265
310.463	-0.0922985
312.256	0.36406
314.047	-0.249411
315.839	0.0203867
317.631	-0.112535
319.423	0.613932
321.215	0.43681
323.006	0.642161
324.794	0.323511
326.585	0.267493
328.375	0.450311
330.165	1.01537
331.954	0.455821
333.741	0.755507
335.53	0.263538
337.318	0.295715
339.106	0.493285
340.894	0.210914
342.679	-0.119762
344.466	-0.187227
346.253	0.629772
348.039	0.181642
349.823	0.904223
351.608	0.194673
353.393	0.272491
355.176	-0.461723
356.961	0.186401
358.745	0.26069
360.529	0.571935
362.31	-0.498351
364.093	0.120605
365.876	-0.449954
367.657	0.0242071
369.439	-0.072402
371.221	0.114654
373	0.395318
374.781	0.48599
376.56	0.104521
378.34	0.573458
380.12	0.0531359
381.898	0.759084
383.677	0.383536
385.456	0.268599
387.233	0.601686
389.011	-0.520537
390.787	-0.278884
392.565	-0.0363321
394.34	0.300891
396.117	-0.253761
397.894	0.319098
399.668	0.210807
401.444	0.337056
403.217	0.345289
404.993	0.329349
406.766	0.101355
408.54	-0.291452
410.312	-0.285323
412.086	0.0260105
413.858	0.0561714
415.631	0.838002
417.402	0.424131
419.174	-0.692996
420.944	-0.354908
422.716	-0.110755
424.486	0.156296
426.257	-0.117457
428.025	0.476572
429.794	0.694484
431.564	0.513396
433.332	0.0745735
435.101	0.0351992
436.868	0.0662851
438.637	0.777342
440.403	0.31348
442.169	0.293456
443.937	-0.197667
445.703	0.0595961
447.468	-0.269934
449.234	-0.108271
450.999	0.380336
452.765	0.214875
454.528	-0.15993
456.292	0.491416
458.057	0.536127
459.819	0.394719
461.582	0.277535
463.344	0.0227289
465.107	-0.275802
466.868	0.241955
468.629	0.414198
470.392	0.425966
472.152	0.857369
473.912	0.450366
475.672	1.11251
477.433	1.1669
479.192	0.962893
480.951	1.2702
482.709	1.50775
484.469	1.35076
486.226	0.613612
487.984	0.903887
489.74	0.730408
491.499	0.814679
493.255	0.198951
495.011	0.82182
496.767	0.743554
498.522	0.617996
500.277	0.820048
502.033	1.11565
503.788	0.212845
505.541	0.482744
507.295	0.633919
509.048	0.760043
510.801	0.272714
512.553	0.207137
514.308	-0.142359
516.06	0.588985
517.811	1.34216
519.562	0.424587
521.313	1.01079
523.063	0.327723
524.814	0.865669
526.563	0.535049
528.313	0.556521
530.062	0.062315
531.811	0.996967
533.559	0.314552
535.308	0.473884
537.055	0.0705881
538.803	0.857272
540.55	-0.154716
542.297	0.325546
544.043	0.618121
545.789	-0.0892248
547.535	-0.00558853
549.281	-0.385536
551.026	-0.0465469
552.771	0.199364
554.515	0.46806
556.259	0.274829
558.003	-0.194333
559.747	-0.0861197
561.49	0.206635
563.233	0.637539
564.975	-0.287697
566.717	-0.177355
568.459	-0.135215
570.2	0.412811
571.942	-0.162237
573.68	1.00797
575.421	0.0925274
577.161	0.0046072
578.901	0.767372
580.64	0.291464
582.379	0.435643
584.118	0.0276537
585.855	-0.0597515
587.593	0.633637
589.331	-0.192502
591.068	0.199664
592.805	0.269154
594.54	0.131386
596.277	0.200711
598.013	-0.236153
599.749	0.407926
601.484	-0.237157
603.217	0.197625
604.952	-0.128036
606.687	0.0507507
608.421	0.0447521
610.153	0.612349
611.886	-0.17358
613.619	-0.522326
615.35	0.298744
617.083	-0.255248
618.815	0.244159
620.547	0.375751
622.276	0.071229
624.008	-0.0738029
625.738	-0.150159
627.467	-0.613522
629.197	-0.367144
630.927	0.269293
632.655	0.565526
634.384	0.54348
636.113	0.703745
637.839	0.451323
639.568	-0.0549011
641.293	0.827592
643.021	0.0424871
644.748	0.464124
646.473	0.316538
648.2	0.330183
649.924	0.937819
651.65	-0.291106
653.376	0.529108
655.099	0.12542
656.824	0.178802
658.546	0.780341
660.271	0.470048
661.993	0.454398
663.716	0.779102
665.438	0.0498419
667.161	0.0956192
668.881	0.483633
670.604	0.186123
672.324	0.554039
674.045	0.627195
675.765	0.840259
677.486	0.550352
679.204	-0.130417
680.925	0.129064
682.643	0.295139
684.361	0.113942
686.08	0.920694
687.797	0.781821
689.516	0.710796
691.232	1.03055
692.95	1.07317
694.666	-0.0366507
696.382	0.464792
698.099	0.987736
699.813	1.00268
701.528	0.326367
703.244	0.592159
704.958	0.397478
706.673	0.477901
708.387	0.534814
710.099	1.00365
711.814	0.853128
713.526	0.611028
715.238	1.23752
716.949	0.104726
718.663	0.776131
720.374	1.08185
722.084	0.157492
723.796	0.622652
725.506	0.700423
727.216	0.368892
728.925	0.854445
730.636	0.499746
732.345	0.802137
734.053	0.741668
735.761	0.952571
737.471	0.463378
739.178	1.39707
740.885	0.459197
742.592	1.19087
744.298	1.13506
746.006	0.788237
747.712	1.43296
749.417	0.999155
751.122	1.19655
752.827	1.01292
754.532	1.21312
756.236	1.91008
757.942	1.32593
759.645	1.23833
761.348	1.51254
763.051	1.35905
764.753	1.56632
766.456	0.95927
768.158	1.70597
769.859	1.95338
771.56	1.7463
773.261	1.80895
774.964	2.48149
776.664	1.63964
778.364	1.45483
780.064	1.52036
781.763	2.01696
783.462	1.85778
785.16	2.21796
786.859	1.44377
788.557	2.13748
790.255	1.1305
791.952	1.5007
793.649	1.14591
795.346	1.6712
797.042	1.52027
798.738	1.48389
800.434	1.89962
802.127	1.16908
803.823	1.49686
805.517	1.30718
807.212	1.97065
808.906	2.0258
810.6	1.2941
812.293	1.23518
813.987	0.839629
815.68	1.87721
817.372	1.66036
819.064	1.42157
820.754	1.31732
822.446	1.83835
824.137	1.86887
825.828	1.58887
827.519	1.17771
829.209	2.0835
830.897	2.19073
832.587	1.76646
834.276	1.74535
835.966	1.97068
837.654	1.72743
839.341	1.32639
841.029	2.10719
842.717	1.94857
844.404	1.92335
846.091	2.30111
847.776	2.05494
849.463	1.60983
851.149	1.70413
852.833	2.31621
854.519	2.05557
856.204	1.72683
857.889	2.11571
859.572	1.71584
861.256	1.60613
862.94	1.3368
864.622	1.74194
866.305	1.47002
867.988	0.926635
869.669	2.09659
871.351	1.48455
873.033	0.939772
874.713	1.20703
876.395	1.58717
878.074	0.364959
879.755	0.835268
881.435	0.898953
883.114	0.871609
884.794	0.639974
886.471	0.926096
888.15	0.984812
889.829	0.883953
891.506	-0.0522032
893.184	1.57893
894.861	1.38357
896.538	0.46801
898.214	1.17014
899.891	0.972452
901.566	1.64817
903.242	1.49361
904.916	0.869891
906.592	0.984504
908.266	1.21096
909.941	1.10372
911.614	1.37586
913.288	1.0481
914.961	1.4541
916.635	1.72626
918.306	1.1335
919.979	0.763342
921.651	0.8811
923.321	1.61872
924.994	1.40715
926.664	1.57315
928.336	1.80708
930.005	1.60095
931.674	1.32947
933.345	1.12454
935.014	1.14043
936.682	1.70812
938.352	1.85762
940.019	1.74381
941.687	1.21217
943.356	1.23275
945.022	1.12078
946.689	0.566107
948.357	1.40015
950.022	1.10638
951.688	0.679033
953.355	0.648936
955.02	0.752693
956.684	1.21207
958.348	0.660363
960.014	0.596642
961.678	0.181058
963.341	1.06896
965.004	0.629253
966.669	0.651025
968.331	0.426511
969.993	0.929893
971.655	0.547377
973.316	0.696164
974.979	-0.126632
976.64	0.77734
978.3	1.24079
979.961	1.09672
981.62	0.952171
983.28	0.396615
984.941	0.857326
986.6	0.961598
988.259	0.444392
989.917	0.52337
991.575	0.31425
993.233	0.767793
994.89	0.602797
996.547	0.261609
998.204	0.626358
999.86	1.14469
1001.52	1.08936
1003.17	0.769558
1004.83	0.779703
1006.49	0.85561
1008.14	0.646045
1009.79	0.502932
1011.45	1.21572
1013.1	0.481614
1014.76	0.887786
1016.41	1.075
1018.06	0.562386
1019.72	0.729087
1021.37	0.52507
1023.02	1.21851
1024.67	1.32266
1026.32	1.12153
1027.97	1.40118
1029.62	1.17761
1031.27	1.43328
1032.92	1.55598
1034.57	1.24029
1036.22	0.814444
1037.87	1.34686
1039.52	0.506927
1041.17	1.19154
1042.82	0.876711
1044.47	0.759643
1046.11	1.07916
1047.76	0.575355
1049.41	0.377409
1051.06	0.593451
1052.7	1.04941
1054.35	1.15832
1055.99	0.919536
1057.64	0.63687
1059.28	-0.059516
1060.93	0.700154
1062.57	0.611037
1064.22	0.60792
1065.86	0.886302
1067.5	0.0984259
1069.15	0.548404
1070.79	0.953891
1072.43	0.425452
1074.08	0.939442
1075.72	0.803438
1077.36	0.950872
1079	0.817734
1080.64	0.555359
1082.28	1.5507
1083.92	0.680287
1085.56	1.15242
1087.2	1.27528
1088.84	1.0925
1090.48	0.626725
1092.12	1.32775
1093.76	1.27098
1095.39	0.567207
1097.03	0.576964
1098.67	1.06202
1100.31	0.794893
1101.94	0.917468
1103.58	1.57974
1105.22	1.21085
1106.85	0.821208
1108.49	1.18404
1110.12	1.13704
1111.76	1.17428
1113.39	0.930389
1115.03	1.587
1116.66	1.01921
1118.29	1.52418
1119.93	1.55792
1121.56	1.22875
1123.19	1.20077
1124.82	1.45208
1126.46	1.66146
1128.09	1.4012
1129.72	1.39844
1131.35	1.67428
1132.98	1.03121
1134.61	1.67064
1136.24	1.15509
1137.87	0.916337
1139.5	1.16766
1141.13	0.819818
1142.76	0.983847
1144.39	0.849245
1146.01	0.672876
1147.64	0.966536
1149.27	0.877504
1150.9	0.384385
1152.53	0.551668
1154.15	0.143695
1155.78	-0.0729227
1157.4	1.00829
1159.03	0.217488
1160.65	0.555023
1162.28	0.851127
1163.9	0.382906
1165.53	0.276715
1167.15	0.850668
1168.78	0.679317
1170.4	1.14382
1172.02	0.331093
1173.65	0.557663
1175.27	0.888626
1176.89	-0.03228
1178.51	0.00165462
1180.14	-0.0695972
1181.76	0.00825691
1183.38	-0.399529
1185	-0.42644
1186.62	0.791612
1188.24	0.00170422
1189.86	-0.0721798
1191.48	0.188959
1193.1	0.174493
1194.71	-0.701661
1196.33	0.458342
1197.95	-0.205473
1199.57	0.40988
1201.19	-0.18541
1202.8	0.496672
1204.42	0.512956
1206.04	0.53159
1207.65	0.301358
1209.27	-0.15793
1210.88	0.132953
1212.5	0.109194
1214.12	-0.12522
1215.73	0.429593
1217.35	-0.266639
1218.96	0.575221
1220.57	0.439482
1222.19	0.843937
1223.8	0.399469
1225.41	0.702727
1227.03	1.11072
1228.64	1.1269
1230.25	0.75166
1231.86	0.770718
1233.47	0.563756
1235.08	0.936866
1236.69	0.567247
1238.31	1.12894
1239.92	0.637068
1241.52	1.07593
1243.13	1.08022
1244.74	0.814678
1246.35	1.04461
1247.96	0.921659
1249.57	0.9634
1251.18	1.14959
1252.78	0.405134
1254.39	1.33694
1256	1.04956
1257.6	1.17725
1259.21	1.26493
1260.82	0.939694
1262.42	1.38096
1264.03	0.931841
1265.63	0.813535
1267.24	0.673659
1268.84	1.17542
1270.45	0.639465
1272.05	0.828031
1273.65	1.07766
1275.26	0.890829
1276.86	0.848126
1278.46	0.410981
1280.06	0.843174
1281.67	1.15048
1283.27	0.816296
1284.87	1.062
1286.47	1.5359
1288.07	0.81199
1289.67	0.523318
1291.27	1.02049
1292.87	1.1456
1294.47	0.46423
1296.07	0.959017
1297.67	1.41043
1299.27	0.766047
1300.87	0.904295
1302.47	1.57654
1304.06	1.87606
1305.66	1.55736
1307.26	1.05388
1308.85	0.981962
1310.45	1.09463
1312.05	1.61692
1313.64	1.72996
1315.24	1.68046
1316.83	1.1013
1318.43	1.76822
1320.02	2.14862
1321.62	2.62921
1323.21	1.60118
1324.8	1.73194
1326.4	1.61712
1327.99	1.98851
1329.59	2.19753
1331.18	2.7922
1332.77	2.88325
1334.36	1.80593
1335.95	2.7297
1337.54	2.58427
1339.14	2.43825
1340.73	2.00844
1342.32	1.69757
1343.91	2.00817
1345.5	1.83485
1347.09	2.42396
1348.67	2.01226
1350.26	1.8244
1351.85	2.05986
1353.44	1.79776
1355.03	1.4175
1356.62	1.67735
1358.2	1.67689
1359.79	1.71528
1361.38	1.31328
1362.96	1.20996
1364.55	1.74429
1366.14	1.70045
1367.72	1.51818
1369.31	0.979151
1370.89	1.49681
1372.48	1.4388
1374.06	1.54131
1375.64	1.40583
1377.23	1.11131
1378.81	1.39331
1380.39	1.9129
1381.98	1.87379
1383.56	1.65417
1385.14	1.4733
1386.72	1.51058
1388.3	1.965
1389.89	2.04265
1391.47	1.5062
1393.05	1.44712
1394.63	1.19021
1396.21	1.84535
1397.79	0.992785
1399.37	1.40787
1400.95	1.18771
1402.52	2.07558
1404.1	1.73584
1405.68	0.843395
1407.26	1.23746
1408.84	1.13825
1410.42	1.51376
1411.99	1.2374
1413.57	1.39483
1415.15	1.3538
1416.72	1.25266
1418.3	1.0132
1419.87	0.774332
1421.45	1.52137
1423.02	0.793312
1424.6	1.54354
1426.17	0.799317
1427.75	1.80747
1429.32	1.22106
1430.89	1.57842
1432.47	1.06852
1434.04	1.12827
1435.61	0.931811
1437.18	1.97431
1438.76	2.05395
1440.33	1.97753
1441.9	2.00053
1443.47	2.08334
1445.04	2.55972
1446.61	1.95532
1448.18	2.03903
1449.75	2.35899
1451.32	1.91276
1452.89	1.72266
1454.46	1.828
1456.03	2.13014
1457.6	2.19552
1459.16	2.33816
1460.73	2.55744
1462.3	2.75468
1463.87	2.20243
1465.43	1.70834
1467	1.50899
1468.56	1.82071
1470.13	1.28931
1471.7	1.58353
1473.26	0.603988
1474.83	1.11602
1476.39	0.961747
1477.96	1.21934
1479.52	1.47681
1481.08	0.636519
1482.65	0.305891
1484.21	0.327918
1485.77	0.388759
1487.34	-0.217105
1488.9	-0.197392
1490.46	1.13142
1492.02	0.696376
1493.58	0.533159
1495.15	0.134211
1496.71	0.475489
1498.27	0.582102
1499.83	0.203121
1501.39	0.214432
1502.95	0.653621
1504.51	-0.321454
1506.07	0.0799665
1507.63	-0.254881
1509.18	-0.145737
1510.74	0.598743
1512.3	0.704483
1513.86	0.0973711
1515.41	0.0302105
1516.97	0.366992
1518.53	0.492868
1520.08	0.389269
1521.64	0.458355
1523.2	1.23417
1524.75	0.46092
1526.31	0.0698051
1527.86	0.0976706
1529.42	0.429092
1530.97	0.816477
1532.52	0.387994
1534.08	0.927379
1535.63	0.823511
1537.19	0.456415
1538.74	0.977994
1540.29	0.518426
1541.84	0.248249
1543.4	0.166706
1544.95	0.310736
1546.5	0.6045
1548.05	0.428411
1549.6	1.11486
1551.15	0.826395
1552.7	1.11898
1554.25	0.701839
1555.8	0.641715
1557.35	0.154254
1558.9	0.41563
1560.45	0.697533
1562	0.533416
1563.54	0.986159
1565.09	1.30905
1566.64	0.829713
1568.19	1.17123
1569.73	0.616425
1571.28	0.397135
1572.83	1.05488
1574.37	1.04046
1575.92	0.652709
1577.47	0.862543
1579.01	1.37155
1580.56	1.17181
1582.1	1.12228
1583.64	1.39124
1585.19	1.51171
1586.73	1.78242
1588.28	1.58594
1589.82	1.08968
1591.36	1.06051
1592.9	0.675043
1594.45	1.45029
1595.99	1.30797
1597.53	1.40966
1599.07	1.53091
1600.61	1.12782
1602.15	1.34421
1603.69	1.05381
1605.23	1.55146
1606.77	1.12714
1608.31	0.869659
1609.85	1.92532
1611.39	1.38082
1612.93	1.2289
1614.47	1.37596
1616.01	1.39103
1617.55	1.74395
1619.08	1.16106
1620.62	1.16088
1622.16	1.27456
1623.7	0.7339
1625.23	1.46632
1626.77	1.01863
1628.3	0.869133
1629.84	1.03616
1631.37	0.771998
1632.91	1.14274
1634.44	1.12134
1635.98	0.895578
1637.51	1.00672
1639.05	1.32354
1640.58	1.62157
1642.11	1.49022
1643.65	1.24605
1645.18	1.05666
1646.71	1.57314
1648.24	1.14082
1649.78	1.32227
1651.31	1.22618
1652.84	0.890431
1654.37	0.98261
1655.9	1.44612
1657.43	1.53872
1658.96	1.42666
1660.49	1.22073
1662.02	1.17995
1663.55	0.990088
1665.08	1.07693
1666.61	1.09015
1668.14	0.975405
1669.66	1.74714
1671.19	1.26694
1672.72	1.08301
1674.25	0.697142
1675.77	1.28701
1677.3	1.26831
1678.83	1.67155
1680.35	1.24581
1681.88	0.65433
1683.4	1.03644
1684.93	0.977698
1686.45	1.2495
1687.98	0.605043
1689.5	0.950937
1691.03	0.216475
1692.55	1.27629
1694.07	0.560702
1695.6	0.887735
1697.12	0.702524
1698.64	0.718022
1700.17	0.276781
1701.69	0.32798
1703.21	0.105137
1704.73	0.282671
1706.25	0.368456
1707.77	-0.0916109
1709.29	0.956611
1710.81	0.51496
1712.33	0.146769
1713.85	0.522192
1715.37	0.426384
1716.89	0.529637
1718.41	0.433765
1719.93	0.229618
1721.45	0.0259809
1722.97	0.400158
1724.49	0.288394
1726	0.628323
1727.52	0.627387
1729.04	0.339619
1730.55	0.392681
1732.07	0.318788
1733.59	0.507916
1735.1	0.587793
1736.62	0.30672
1738.13	0.177917
1739.65	-0.248903
1741.16	0.187486
1742.68	0.154144
1744.19	0.143081
1745.7	0.0816879
1747.22	-0.0306091
1748.73	0.0107021
1750.24	0.0216675
1751.76	-0.529325
1753.27	0.0884237
1754.78	0.322101
1756.29	0.572767
1757.8	0.301236
1759.31	0.273488
1760.83	0.11152
1762.34	-0.171555
1763.85	0.0505495
1765.36	0.541269
1766.87	0.38485
1768.38	0.0436201
1769.89	0.172063
1771.39	0.0343208
1772.9	0.15012
1774.41	0.376286
1775.92	0.169028
1777.43	0.11632
1778.94	-0.089016
1780.44	0.0835276
1781.95	0.0174646
1783.46	0.116747
1784.96	0.432097
1786.47	0.545879
1787.97	0.349113
1789.48	0.315949
1790.99	0.164013
1792.49	0.100188
1794	-0.106404
1795.5	-0.230194
1797	0.146269
1798.51	0.171693
1800.01	0.279483
1801.51	0.359311
1803.02	0.24725
1804.52	0.214367
1806.02	0.0780535
1807.53	0.0273848
1809.03	0.379689
1810.53	0.0717297
1812.03	0.0515709
1813.53	-0.0373077
1815.03	0.172806
1816.53	0.203195
1818.03	0.52016
1819.53	0.245565
1821.03	0.098877
1822.53	0.241852
1824.03	0.324951
1825.53	0.53902
1827.03	0.479574
1828.53	-0.0625629
1830.02	-0.0473185
1831.52	0.130541
1833.02	0.182365
1834.52	0.41395
1836.01	0.307926
1837.51	0.392845
1839.01	-0.149669
1840.5	-0.0820293
1842	0.205882
1843.49	0.147504
1844.99	0.231537
1846.48	0.270749
1847.98	0.177691
1849.47	0.0171261
1850.97	0.479151
1852.46	0.0917253
1853.95	-0.0598488
1855.45	-0.0292883
1856.94	0.439255
1858.43	0.282954
1859.93	0.0406351
1861.42	0.562946
1862.91	0.270065
1864.4	0.293005
1865.89	0.641803
1867.38	0.418836
1868.87	0.329601
1870.36	0.476707
1871.85	0.507006
1873.34	-0.119926
1874.83	-0.0254078
1876.32	0.475714
1877.81	0.361546
1879.3	0.334733
1880.79	0.387555
1882.28	-0.123584
1882.52	-0.228232
1884.02	0.573117
1885.51	0.222955
1887.01	0.377305
1888.5	0.548369
1889.99	0.319287
1891.49	0.45665
1892.98	0.00445366
1894.47	0.0757875
1895.97	0.131297
1897.46	-0.0905972
1898.95	-0.0517635
1900.44	0.438393
1901.93	-0.116872
1903.42	0.161064
1904.91	0.211349
1906.4	0.121779
1907.89	0.275378
1909.38	0.446808
1910.87	-0.109674
1912.36	-0.109834
1913.85	0.428213
1915.34	-0.0395908
1916.83	0.376631
1918.32	0.445448
1919.8	0.201876
1921.29	0.0276451
1922.78	0.321455
1924.27	0.47753
1925.75	0.409704
1927.24	0.0833063
1928.73	0.259621
1930.21	0.0722923
1931.7	-0.0985556
1933.18	-0.063035
1934.67	0.0399542
1936.15	-0.0318317
1937.64	-0.415944
1939.12	0.219419
1940.61	-0.0263872
1942.09	-0.115737
1943.57	0.141033
1945.06	0.226036
1946.54	0.0355453
1948.02	0.327475
1949.51	-0.00172615
1950.99	0.150472
1952.47	0.112278
1953.95	0.297089
1955.43	-0.515082
1956.91	-0.295465
1958.4	-0.00680923
1959.88	0.196502
1961.36	0.0400944
1962.84	0.175395
1964.32	-0.0836611
1965.8	0.0166349
1967.27	0.270174
1968.75	0.0609226
1970.23	0.244474
1971.71	0.154208
1973.19	-0.243215
1974.67	0.0251999
1976.14	-0.473561
1977.62	0.0334291
1979.1	0.454734
1980.58	0.280101
1982.05	-0.149446
1983.53	-0.00116634
1985	0.0107718
1986.48	0.209004
1987.95	-0.0676098
1989.43	0.469343
1990.9	-0.0598955
1992.38	0.291929
1993.85	0.103447
1995.33	0.0680351
1996.8	0.303386
1998.27	-0.0356569
1999.75	0.33415
2001.22	0.736784
2002.69	0.581913
2004.16	0.258473
2005.64	-0.0980177
2007.11	-0.251356
2008.58	-0.319489
2010.05	0.236149
2011.52	0.20298
2012.99	-0.0657663
2014.46	0.0858564
2015.93	0.118874
2017.4	0.066865
2018.87	-0.0363607
2020.34	-0.089632
2021.81	0.293639
2023.28	0.47543
2024.75	0.171305
2026.22	0.774364
2027.69	0.0201988
2029.15	0.122973
2030.62	0.176783
2032.09	0.617561
2033.56	0.253348
2035.02	0.342278
2036.49	0.363675
2037.96	0.317333
2039.42	-0.116005
2040.89	0.391794
2042.35	0.0426722
2043.82	-0.15453
2045.28	0.120148
2046.75	0.109633
2048.21	-0.0690432
2049.67	0.324797
2051.14	0.00982857
2052.6	-0.00331116
2054.07	0.251602
2055.53	0.319223
2056.99	0.351694
2058.45	0.147408
2059.92	0.0441828
2061.38	-0.378465
2062.84	-0.295094
2064.3	0.2436
2065.76	0.0931969
2067.22	0.128758
2068.68	0.198571
2070.14	0.201378
2071.6	0.254754
2073.06	0.240645
2074.52	0.142069
2075.98	0.161023
2077.44	-0.00562954
2078.9	-0.189515
2080.36	0.030303
2081.82	0.737778
2083.27	0.400671
2084.73	0.147114
2086.19	0.498563
2087.65	-0.311075
2089.1	0.291321
2090.56	0.305002
2092.02	0.368957
2093.47	0.18106
2094.93	0.211118
2096.38	-0.16159
2097.84	0.135478
2099.29	0.213938
2100.75	0.308676
2102.2	0.0525808
2103.66	0.482295
2105.11	0.0783186
2106.56	0.493542
2108.02	0.242423
2109.47	0.225213
2110.92	0.124129
2112.38	0.171794
2113.83	0.00125408
2115.28	-0.104035
2116.73	0.571332
2118.18	0.116358
2119.63	-0.0378466
2121.09	0.357432
2122.54	0.472378
2123.99	0.257092
2125.44	0.307789
2126.89	0.291903
2128.34	0.258461
2129.79	-0.24028
2131.23	0.237359
2132.68	0.266787
2134.13	0.0149174
2135.58	-0.0375223
2137.03	0.159388
2138.48	0.0274477
2139.92	0.227847
2141.37	0.115797
2142.82	0.451292
2144.27	0.142496
2145.71	0.114922
2147.16	0.484411
2148.6	0.489169
2150.05	0.194872
2151.49	0.363444
2152.94	0.265976
2154.38	-0.16365
2155.83	0.135304
2157.27	0.368003
2158.72	0.386014
2160.16	0.189931
2161.6	0.094842
2163.05	0.11745
2164.49	0.489904
2165.93	-0.149056
2167.38	-0.0580006
2168.82	0.414584
2170.26	-0.145212
2171.7	0.357393
2173.14	0.0431023
2174.58	0.209942
2176.03	0.475956
2177.47	-0.0061636
2178.91	0.0113058
2180.35	0.195923
2181.79	0.0987186
2183.23	0.201591
2184.67	0.271496
2186.1	0.258309
2187.54	0.0787506
2188.98	0.182078
2190.42	-0.080781
2191.86	0.505093
2193.3	0.2912
2194.73	0.042738
2196.17	-0.407071
2197.61	0.372853
2199.05	0.352179
2200.48	-0.0682325
2201.92	-0.00669765
2203.35	0.254442
2204.79	0.499704
2206.22	0.36454
2207.66	-0.0350599
2209.1	0.211327
2210.53	0.52294
2211.97	0.0888748
2213.4	0.100958
2214.83	0.245028
2216.27	0.389477
2217.7	0.452369
2219.13	-0.390581
2220.57	-0.0946369
2222	0.481424
2223.43	-0.0638905
2224.86	0.0815744
2226.29	0.373313
2227.72	0.0875578
2229.16	0.211677
2230.59	0.0230894
2232.02	0.047719
2233.45	0.236251
2234.88	-0.0327482
2236.31	0.189994
2237.74	0.250648
2239.17	-0.306954
2240.6	0.458976
2242.03	-0.0620832
2243.45	0.086792
2244.88	0.154474
2246.31	0.580367
2247.74	0.466411
2249.17	0.382962
2250.59	0.0856094
2252.02	-0.00139713
2253.45	0.382529
2254.87	0.327373
2256.3	0.0626726
2257.73	-0.0533934
2259.15	0.125341
2260.58	0.193317
2262	0.458492
2263.43	0.15708
2264.85	-0.0956373
2266.28	0.464035
2267.7	0.454099
2269.13	0.426943
2270.55	0.0733852
2271.97	0.126226
2273.4	0.081192
2274.82	0.296854
2276.24	0.463932
2277.67	-0.0206461
2279.09	0.162977
2280.51	0.37925
2281.93	0.0898685
2283.35	0.0776081
2284.77	0.37544
2286.2	0.0533562
2287.62	-0.170588
2289.04	-0.230935
2290.46	-0.372651
2291.88	0.13966
2293.3	0.358159
2294.72	0.0532503
2296.13	0.0426283
2297.55	0.0155649
2298.97	-0.0114756
2300.39	0.207483
2301.81	0.115366
2303.23	0.0890551
2304.64	0.423993
2306.06	0.217237
2307.48	0.28926
2308.89	0.541619
2310.31	0.497583
2311.73	0.189926
2313.14	0.293386
2314.56	0.0845728
2315.98	0.0245066
2317.39	-0.199617
2318.81	-0.110356
2320.22	0.0282612
2321.64	0.281446
2323.05	0.136821
2324.46	-0.0101004
2325.88	0.401792
2327.29	1.07549
2328.7	0.775295
2330.12	0.376803
2331.53	-0.0697889
2332.94	0.291482
2334.35	0.0445995
2335.77	0.127078
2337.18	0.176182
2338.59	0.0270119
2340	-0.106712
2341.41	0.25145
2342.82	-0.310358
2344.23	-0.0678663
2345.64	0.092618
2347.05	-0.156296
2348.46	-0.273926
2349.87	0.475224
2351.28	-0.134209
2352.69	0.0566673
2354.1	0.507337
2355.51	0.0436077
2356.91	-0.142672
2358.32	0.143078
2359.73	-0.221561
2361.14	-0.0335121
2362.54	0.348681
2363.95	0.0497265
2365.36	0.0425577
2366.76	0.4881
2368.17	0.0130739
2369.58	0.0238552
2370.98	0.261577
2372.39	0.403666
2373.79	0.256771
2375.2	0.142584
2376.6	0.12466
2378	-0.0390263
2379.41	0.0852203
2380.81	0.384202
2382.22	0.135937
2383.62	0.0474987
2385.02	0.0390224
2386.43	0.13479
2387.83	0.215267
2389.23	0.320683
2390.63	0.0288944
2392.03	0.0730171
2393.44	-0.120607
2394.84	0.450164
2396.24	0.130881
2397.64	0.0985212
2399.04	0.193855
2400.44	0.0831232
2401.84	-0.297288
2403.24	-0.201108
2404.64	-0.168827
2406.04	0.211832
2407.44	-0.0275202
2408.84	-0.457741
2410.23	0.348542
2411.63	0.219469
2413.03	-0.241244
2414.43	0.0595026
2415.83	0.171607
2417.22	0.364177
2418.62	0.33604
2420.02	-0.135189
2421.41	-0.0681419
2422.81	0.109482
2424.21	0.160122
2425.6	-0.201178
2427	-0.229274
2428.39	0.345878
2429.79	0.525867
2431.18	0.405251
2432.58	0.41168
2433.97	0.147585
2435.36	0.24758
2436.76	0.203144
2438.15	0.395494
2439.54	0.205246
2440.94	0.125335
2442.33	0.187801
2443.72	0.361008
2445.12	-0.243318
2446.51	0.214966
2447.9	0.197287
2449.29	0.0528822
2450.68	0.0988197
2452.07	-0.361239
2453.46	0.0341654
2454.85	0.00307369
2456.24	0.146671
2457.64	0.132384
2459.02	-0.245841
2460.41	0.308519
2461.8	-0.0709715
2463.19	0.0389471
2464.58	0.164008
2465.97	0.320247
2467.36	-0.28145
2468.75	0.0166941
2470.13	0.377444
2471.52	-0.0822792
2472.91	-0.274347
2474.3	0.225756
2475.68	0.331224
2477.07	-0.0825243
2478.45	-0.0873442
2479.84	0.0806084
2481.23	-0.33169
2482.61	0.243631
2484	0.253996
2485.38	-0.0962563
2486.77	0.240503
2488.15	-0.0799818
2489.54	-0.0419655
2490.92	0.0113649
2492.3	-0.0437546
2493.69	0.352574
2495.07	0.0824051
2496.45	0.0774469
2497.84	0.104311
2499.22	0.332619
2500.6	-0.476038
2501.98	0.106743
2503.36	-0.0844774
2504.75	0.24824
2506.13	-0.0829172
2507.51	0.140476
2508.89	-0.0669699
2510.27	0.00286961
2511.65	-0.0955715
2513.03	0.128811
2514.41	-0.0751934
2515.79	0.0127525
2517.17	-0.066925
2518.55	-0.0389671
2519.93	-0.178966
2521.3	0.0322037
2522.68	0.0440569
2524.06	-0.0211926
2525.44	-0.10229
2526.82	0.349447
2528.19	0.0552988
2529.57	-0.0244865
2530.95	0.398907
2532.32	-0.0119991
2533.7	0.247069
2535.08	0.218162
2536.45	-0.418475
2537.83	0.0836525
2539.2	-0.0076313
2540.58	-0.251505
2541.95	0.0356379
2543.33	0.0800896
2544.7	-0.0263424
2546.08	0.156637
2547.45	0.0981255
2548.82	-0.171966
2550.2	0.0283213
2551.57	0.0309076
2552.94	0.184361
2554.32	0.00292301
2555.69	0.169608
2557.06	0.214314
2558.43	0.319512
2559.8	0.106571
2561.18	0.348938
2562.55	-0.0294638
2563.92	-0.0738516
2565.29	-0.102671
2566.66	-0.17672
2568.03	-0.0839796
2569.4	0.266422
2570.77	0.253096
2572.14	0.209488
2573.51	-0.0917387
2574.88	-0.33229
2576.25	0.230692
2577.61	0.384297
2578.98	-0.0233355
2580.35	-0.128077
2581.72	-0.00577164
2583.09	0.100991
2584.45	-0.505018
2585.82	0.253284
2587.19	0.162768
2588.55	0.0421429
2589.92	-0.16929
2591.29	-0.214126
2592.65	0.0587864
2594.02	0.103584
2595.38	-0.140377
2596.75	0.311127
2598.11	0.307524
2599.48	0.530321
2600.84	0.224106
2602.21	0.0546465
2603.57	-0.295139
2604.93	0.12546
2606.3	-0.0875998
2607.66	0.257092
2609.02	-0.0625048
2610.39	-0.0816917
2611.75	0.0182676
2613.11	-0.213886
2614.47	-0.0257578
2615.83	0.0867014
2617.19	0.0942211
2618.56	0.222128
2619.92	-0.0833702
2621.28	0.28519
2622.64	0.0560656
2624	0.245577
2625.36	-0.20688
2626.72	0.176098
2628.08	-0.0229483
2629.44	0.165134
2630.8	0.20393
2632.15	0.183085
2633.51	0.0136776
2634.87	0.26008
2636.23	0.135303
2637.59	-0.00411034
2638.94	0.123258
2640.3	0.102629
2641.66	-0.0655537
2643.02	0.106554
2644.37	-0.2824
2645.73	0.169997
2647.09	-0.042037
2648.44	0.0696325
2649.8	0.592335
2651.15	-0.0039711
2652.51	-0.202861
2653.86	-0.225088
2655.22	0.0758953
2656.57	-0.135164
2657.93	0.079649
2659.28	0.10492
2660.63	0.2183
2661.99	0.0245209
2663.34	-0.0673981
2664.69	0.146521
2666.05	0.446885
2667.4	0.192501
2668.75	-0.0178957
2670.1	0.223356
2671.45	-0.0441113
2672.81	0.227015
2674.16	0.0918255
2675.51	-0.0571651
2676.86	0.0847025
2678.21	0.502675
2679.56	0.065773
2680.91	-0.0654783
2682.26	0.1814
2683.61	0.284508
2684.96	-0.119039
2686.31	0.246639
2687.66	0.380163
2689	0.265756
2690.35	0.265765
2691.7	0.438092
2693.05	0.100955
2694.4	0.183671
2695.74	0.13568
2697.09	0.276653
2698.44	0.216079
2699.79	0.229614
2701.13	0.20146
2702.48	0.131347
2703.83	-0.0392075
2705.17	0.00806046
2706.52	-0.0461044
2707.86	0.653995
2709.21	0.468733
2710.55	0.311981
2711.9	0.256536
2713.24	0.273561
2714.58	0.305069
2715.93	0.220206
2717.27	0.571475
2718.62	0.428041
2719.96	0.516973
2721.3	0.25619
2722.65	0.285942
2723.99	0.417105
2725.33	0.140266
2726.67	0.445261
2728.01	0.298717
2729.35	0.18106
2730.7	0.325188
2732.04	0.440148
2733.38	0.366056
2734.72	-0.0569353
2736.06	-0.246953
2737.4	0.43581
2738.74	0.333153
2740.08	0.230255
2741.42	-0.19298
2742.76	0.415441
2744.1	0.23806
2745.43	0.219972
2746.77	0.44832
2748.11	0.0666437
2749.45	0.0190382
2750.79	0.479277
2752.12	0.200038
2753.46	0.35601
2754.8	0.135369
2756.14	0.233637
2757.47	0.216176
2758.81	-0.235297
2760.14	0.138765
2761.48	0.0356436
2762.81	0.30923
2764.15	0.221377
2765.49	-0.141379
2766.82	0.117558
2768.16	0.259782
2769.49	-0.0186882
2770.82	0.178543
2772.16	0.316387
2773.49	0.207649
2774.82	0.0408764
2776.16	-0.096837
2777.49	0.125824
2778.82	0.0610628
2780.16	0.327435
2781.49	-0.138612
2782.82	0.0992451
2784.15	0.107266
2785.48	0.0722485
2786.82	-0.0484705
2788.15	0.0318556
2789.48	0.370413
2790.81	-0.0913153
2792.14	-0.237411
2793.47	-0.297219
2794.8	-0.113996
2796.13	0.140257
2797.46	0.165275
2798.79	-0.210081
2800.12	0.299311
2801.44	0.151767
2802.77	0.303587
2804.1	0.298227
2805.43	0.16424
2806.76	-0.0982962
2808.08	-0.318428
2809.41	0.12932
2810.74	0.207179
2812.07	0.143631
2813.39	-0.00378895
2814.72	-0.263048
2816.05	0.329721
2817.37	0.0447216
2818.7	0.199717
2820.02	0.510636
2821.35	0.169127
2822.67	-0.102138
2824	0.221135
2825.32	-0.0934896
2826.65	0.0735579
2827.97	0.085309
2829.3	0.253346
2830.62	0.690802
2831.94	0.335741
2833.26	0.362837
2834.59	0.163149
2835.91	0.741377
2837.23	0.583098
2838.56	0.537607
2839.88	0.760627
2841.2	0.941229
2842.52	1.22113
2843.84	1.12005
2845.16	0.991487
2846.48	1.32995
2847.8	1.20244
2849.12	1.23041
2850.45	1.58317
2851.77	1.39833
2853.08	1.41085
2854.4	1.09796
2855.72	1.71747
2857.04	1.87061
2858.36	2.03789
2859.68	1.4425
2861	2.3015
2862.32	1.59284
2863.63	2.53543
2864.95	2.8282
2866.27	2.51423
2867.59	2.93404
2868.9	2.67737
2870.22	3.09795
2871.54	2.87018
2872.85	3.33278
2874.17	3.39984
2875.48	3.86006
2876.8	3.69919
2878.11	3.90339
2879.43	3.96642
2880.74	4.71849
2882.06	4.16423
2883.37	4.45434
2884.69	4.39442
2886	4.18085
2887.31	4.31833
2888.63	4.73588
2889.94	4.53506
2891.25	5.07651
2892.57	4.36941
2893.88	5.30177
2895.19	5.07156
2896.5	5.15047
2897.82	4.99277
2899.13	5.13021
2900.44	5.01678
2901.75	5.22569
2903.06	5.44884
2904.37	5.33645
2905.68	5.51815
2906.99	5.35086
2908.3	6.00988
2909.61	5.6208
2910.92	5.904
2912.23	5.83738
2913.54	6.32984
2914.85	6.20465
2916.16	6.18937
2917.46	6.27018
2918.77	6.33574
2920.08	6.40109
2921.39	6.69092
2922.7	6.49288
2924	6.10088
2925.31	6.6468
2926.62	6.34081
2927.92	6.49618
2929.23	6.58124
2930.54	7.05709
2931.84	6.84737
2933.15	6.91695
2934.45	6.73492
2935.76	6.69283
2937.06	6.8466
2938.37	6.76304
2939.67	6.79163
2940.98	6.62521
2942.28	5.98469
2943.58	6.11414
2944.89	6.21729
2946.19	5.91633
2947.49	5.2381
2948.8	5.83279
2950.1	5.23651
2951.4	5.18411
2952.7	4.96156
2954.01	4.91951
2955.31	4.77907
2956.61	5.00358
2957.91	4.69849
2959.21	4.66236
2960.51	4.36314
2961.81	4.50039
2963.11	4.49846
2964.41	4.52401
2965.71	3.98612
2967.01	4.28916
2968.31	4.30979
2969.61	4.0343
2970.91	3.89921
2972.21	3.75034
2973.51	3.71438
2974.81	3.48134
2976.1	3.99375
2977.4	3.16722
2978.7	3.16957
2980	3.38121
2981.29	3.29578
2982.59	2.78786
2983.89	3.06806
2985.18	2.52007
2986.48	2.80305
2987.78	2.32881
2989.07	2.40372
2990.37	2.04328
2991.66	1.94937
2992.96	1.78413
2994.25	1.51931
2995.55	1.68892
2996.84	1.54878
2998.14	1.31034
2999.43	1.42307
3000.73	1.46619
3002.02	0.795068
3003.31	0.839466
3004.61	1.13614
3005.9	0.746197
3007.19	0.915898
3008.48	0.776816
3009.77	0.832773
3011.07	0.524645
3012.36	0.691271
3013.65	0.578661
3014.94	0.243646
3016.23	0.244162
3017.52	0.287229
3018.81	-0.197947
3020.1	0.499625
3021.4	0.0841045
3022.68	-0.0677586
3023.97	-0.248027
3025.26	0.139774
3026.55	-0.221247
3027.84	0.0554247
3029.13	0.180669
3030.42	0.0585709
3031.71	0.117646
3033	0.357236
3034.28	0.00362778
3035.57	-0.0880861
3036.86	0.122416
3038.15	-0.0410352
3039.43	0.151841
3040.72	0.0541372
3042.01	-0.0853353
3043.29	-0.128473
3044.58	-0.252737
3045.87	0.40426
3047.15	0.09234
3048.44	0.192849
3049.72	0.268157
3051.01	0.24957
3052.29	0.190958
3053.58	0.241588
3054.86	0.26434
3056.15	0.381579
3057.43	0.0887241
3058.71	0.285921
3060	0.523531
3061.28	0.135339
3062.56	0.401436
3063.84	0.206497
3065.13	0.693009
3066.41	0.0661922
3067.69	0.324125
3068.97	0.229037
3070.26	0.0657425
3071.54	0.309683
3072.82	0.158081
3074.1	0.114152
3075.38	0.395514
3076.66	0.282516
3077.94	0.197261
3079.22	0.126793
3080.5	0.302094
3081.78	-0.10428
3083.06	0.114648
3084.34	-0.0319514
3085.62	0.0658326
3086.9	0.204031
3088.18	-0.0655851
3089.45	-0.186464
3090.73	-0.0905395
3092.01	-0.0760975
3093.29	-0.156368
3094.56	0.360454
3095.84	0.226643
3097.12	-0.245835
3098.4	0.067997
3099.67	-0.079041
3100.95	-0.0498843
3102.22	0.12838
3103.5	0.333989
3104.78	-0.177266
3106.05	0.327462
3107.33	-0.0600505
3108.6	0.297862
3109.88	0.372765
3111.15	0.17798
3112.43	0.322518
3113.7	0.318654
3114.97	-0.0511422
3116.25	0.310734
3117.52	0.210912
3118.79	0.0287499
3120.07	0.252519
3121.34	0.272046
3122.61	0.467246
3123.88	0.093307
3125.16	0.315738
3126.43	0.159585
3127.7	0.410087
3128.97	0.282338
3130.24	0.317406
3131.51	0.379725
3132.79	0.509555
3134.06	0.287882
3135.33	0.592513
3136.6	0.963844
3137.87	0.525385
3139.14	0.801285
3140.41	0.740232
3141.67	0.840858
3142.94	0.659561
3144.21	0.53291
3145.48	0.407201
3146.75	0.818666
3148.02	0.841896
3149.29	0.946172
