200.43	0.143105
202.244	0.153353
204.059	0.164917
205.873	0.761301
207.688	0.871443
209.501	0.154941
211.314	-0.0274057
213.127	0.881652
214.941	0.600042
216.753	-0.190579
218.564	0.618636
220.375	0.531974
222.186	0.591634
223.999	0.74902
225.809	0.230333
227.618	0.485336
229.428	0.232837
231.236	-0.454258
233.045	0.234183
234.855	-0.138493
236.663	-0.244438
238.471	0.326599
240.278	-0.329121
242.085	0.295086
243.891	0.390548
245.698	0.727559
247.503	0.0252838
249.309	0.455136
251.116	0.10944
252.921	-0.455885
254.725	0.256258
256.529	0.895007
258.333	0.305029
260.136	-0.403241
261.939	0.0710468
263.742	0.233865
265.544	-0.349052
267.346	0.249174
269.148	0.148412
270.949	-0.170047
272.75	0.667761
274.55	0.105894
276.351	-0.0716362
278.15	0.351691
279.95	-0.286976
281.749	0.541476
283.548	0.068243
285.346	-0.189229
287.144	0.345176
288.942	0.25516
290.739	0.597309
292.536	0.00679016
294.333	0.590802
296.129	0.0759659
297.925	-0.246082
299.721	-0.13728
301.514	0.353514
303.309	0.24635
305.104	-0.0766325
306.898	0.339266
308.692	0.0632334
310.486	-0.307221
312.279	0.0145054
314.072	0.432948
315.862	0.0436211
317.654	0.656322
319.446	0.532463
321.238	0.314441
323.029	0.192445
324.819	-0.0723572
326.608	0.283463
328.398	0.329001
330.188	-0.319266
331.977	0.274449
333.766	-0.0421448
335.553	0.309138
337.341	0.466842
339.129	0.191821
340.917	-0.0127888
342.704	-0.2658
344.489	0.0070343
346.275	0.160749
348.062	-0.687786
349.845	0.0879383
351.631	0.74409
353.416	0.564275
355.201	0.55053
356.984	0.440127
358.768	0.566852
360.552	0.00167274
362.333	0.316887
364.116	0.27424
365.899	0.23099
367.68	-0.0265408
369.462	0.189859
371.243	-0.0213575
373.023	0.0748119
374.804	0.0522604
376.585	0.2659
378.363	-0.62867
380.143	0.199117
381.923	-0.00907993
383.7	0.25473
385.479	-0.044673
387.256	-0.272096
389.034	0.159477
390.812	0.0281525
392.588	-0.125813
394.365	-0.16172
396.14	0.413345
397.916	0.237054
399.691	0.553825
401.467	-0.139763
403.24	-0.0353575
405.015	-0.0490694
406.788	0.194823
408.563	-0.172356
410.335	-0.140659
412.109	0.219629
413.88	0.157836
415.654	0.284472
417.424	0.177257
419.197	0.399223
420.967	-0.0121908
422.739	0.115977
424.508	0.149612
426.279	0.581492
428.048	-0.184712
429.819	0.597957
431.587	0.652861
433.356	0.262176
435.124	-0.409788
436.891	0.232535
438.66	0.73339
440.426	0.364489
442.194	-0.193812
443.96	0.0668907
445.725	-0.424136
447.492	0.184548
449.257	0.207098
451.021	-0.237576
452.787	0.415981
454.551	-0.0975523
456.314	0.438533
458.079	0.251692
459.842	-0.00460911
461.604	-0.352926
463.368	0.0908012
465.13	0.420269
466.891	0.520123
468.654	0.08815
470.415	0.0297174
472.175	0.390683
473.935	0.402126
475.696	0.458448
477.456	0.396167
479.215	0.518391
480.973	0.080575
482.733	0.69101
484.491	0.790174
486.249	0.518579
488.006	0.505304
489.765	0.703991
491.522	0.834006
493.278	0.264
495.034	0.32458
496.789	1.2513
498.544	0.492478
500.301	0.41192
502.056	0.917329
503.81	0.788448
505.564	0.376185
507.317	0.738114
509.071	0.557753
510.825	0.352169
512.578	0.427347
514.33	-0.0871859
516.082	0.620427
517.833	0.244673
519.585	0.808511
521.335	0.407732
523.086	0.664414
524.836	0.0756369
526.586	0.918438
528.335	0.822514
530.085	0.585972
531.835	0.115065
533.584	0.673864
535.332	0.365314
537.08	-0.084321
538.827	0.422777
540.574	0.111426
542.321	0.661846
544.068	0.675463
545.814	0.572817
547.56	0.447376
549.305	-0.280273
551.05	0.0590954
552.795	0.652319
554.54	-0.00329208
556.282	0.473765
558.025	0.0739374
559.769	0.87336
561.512	0.613034
563.255	0.238694
564.997	0.417112
566.739	0.458082
568.481	-0.533339
570.223	0.588347
571.964	0.632319
573.705	0.0126686
575.443	0.518772
577.183	0.131762
578.923	0.204863
580.663	0.554369
582.402	0.628586
584.141	0.51843
585.879	-0.190781
587.615	0.593674
589.353	0.47994
591.09	0.0661526
592.828	0.273037
594.564	-0.00340939
596.299	0.0652742
598.035	0.0879002
599.771	0.110184
601.506	0.522738
603.242	-0.0550051
604.974	-0.288904
606.709	-0.202115
608.443	-0.07026
610.177	0.0153761
611.908	0.514216
613.642	-0.133072
615.374	-0.274999
617.105	-0.0730009
618.837	0.105473
620.569	0.168321
622.3	-0.0903473
624.03	0.313452
625.761	0.0770044
627.491	0.00161648
629.219	0.475796
630.949	0.56407
632.677	0.905357
634.406	0.608764
636.135	0.791147
637.861	0.606636
639.59	0.670571
641.318	0.6859
643.043	0.493664
644.77	0.960763
646.495	1.06331
648.222	0.0309792
649.948	1.32032
651.672	0.636298
653.398	1.34241
655.121	0.960935
656.846	0.945454
658.569	0.953712
660.293	0.117346
662.015	0.488317
663.738	0.766242
665.46	0.470497
667.183	0.447103
668.903	0.583023
670.626	0.353576
672.346	0.903892
674.067	1.0679
675.787	1.48645
677.508	1.19588
679.226	1.0197
680.947	1.279
682.665	0.869708
684.385	0.918134
686.102	1.33302
687.821	0.710024
689.538	0.891965
691.254	1.14228
692.972	0.585736
694.688	1.50259
696.406	1.56609
698.121	1.14488
699.835	0.768712
701.552	1.01269
703.266	0.519957
704.98	1.74972
706.695	0.796862
708.409	1.42735
710.121	0.658711
711.836	0.417531
713.548	0.382323
715.26	1.26107
716.973	1.38469
718.685	1.09757
720.396	1.19857
722.108	1.2312
723.818	1.60512
725.528	0.500611
727.238	1.32835
728.949	1.65492
730.658	1.48165
732.367	1.9198
734.075	0.614702
735.785	1.14304
737.493	1.33197
739.2	1.47608
740.907	1.05737
742.614	1.60906
744.322	1.44098
746.028	1.22949
747.734	1.33447
749.439	1.82309
751.144	1.63818
752.849	1.63452
754.555	1.29478
756.26	1.63146
757.963	1.38456
759.667	1.92735
761.37	1.52511
763.073	1.88995
764.775	1.21639
766.477	1.89649
768.179	2.259
769.883	2.00894
771.584	1.55315
773.285	1.86471
774.986	2.40183
776.686	2.6907
778.386	1.60163
780.085	1.98382
781.785	2.05063
783.484	1.98187
785.182	1.23286
786.881	2.9036
788.579	2.12632
790.276	1.61768
791.974	1.46863
793.671	2.06334
795.367	1.66403
797.064	2.10022
798.76	1.81668
800.456	1.96297
802.151	2.06555
803.846	2.39365
805.541	1.93452
807.234	2.19401
808.928	2.40707
810.622	2.6186
812.315	1.77488
814.008	1.98496
815.701	2.41828
817.394	2.31397
819.086	2.38868
820.778	2.10614
822.468	2.33762
824.159	1.54389
825.85	1.66618
827.541	1.8795
829.231	2.34038
830.921	1.49032
832.609	1.95712
834.298	1.73546
835.987	1.93835
837.676	2.07435
839.364	1.7181
841.051	1.94072
842.738	1.98336
844.426	1.73498
846.113	1.68829
847.798	1.37494
849.484	1.82431
851.171	1.64984
852.857	2.21664
854.54	1.64123
856.226	1.31154
857.911	1.65463
859.593	2.15419
861.278	1.12146
862.961	1.14478
864.645	2.18103
866.327	1.72913
868.01	1.52436
869.692	1.61222
871.373	1.51932
873.055	1.8097
874.735	0.904198
876.416	1.75865
878.097	1.32686
879.776	1.07542
881.457	1.68142
883.135	1.06769
884.815	1.33332
886.495	1.25896
888.172	1.31849
889.851	1.9176
891.528	2.42436
893.206	1.46515
894.882	1.42883
896.56	1.63875
898.237	1.91458
899.912	1.2243
901.589	1.5206
903.263	1.79322
904.94	1.84143
906.614	1.73351
908.289	1.0691
909.962	1.49827
911.635	1.14877
913.31	1.7563
914.982	0.830966
916.656	1.39367
918.328	1.29039
920.001	1.40879
921.672	2.14694
923.345	1.42612
925.015	1.63574
926.685	0.875481
928.357	1.04447
930.026	1.58971
931.698	1.40734
933.366	0.717928
935.035	1.26407
936.705	0.685673
938.373	1.12265
940.041	0.678577
941.71	0.676723
943.377	1.64647
945.044	0.740499
946.712	1.06929
948.378	1.10939
950.044	0.794497
951.709	0.721257
953.376	1.24355
955.041	0.92916
956.706	1.34514
958.372	1.2351
960.036	1.19395
961.699	0.911336
963.362	0.473504
965.027	0.962494
966.69	1.27235
968.352	1.53526
970.014	1.41987
971.676	0.927583
973.339	1.56373
975	1.60413
976.661	0.850208
978.322	1.1372
979.982	1.09309
981.642	1.0486
983.303	0.338643
984.962	1.08787
986.621	1.28153
988.28	1.62812
989.938	1.37603
991.596	1.27821
993.254	0.826925
994.911	1.01639
996.57	1.36018
998.227	0.534945
999.884	1.09872
1001.54	1.37512
1003.2	1.32061
1004.85	1.11188
1006.51	1.05715
1008.16	0.958686
1009.82	0.312063
1011.47	1.31145
1013.12	0.819711
1014.78	0.942246
1016.43	1.24016
1018.08	0.96939
1019.74	0.940237
1021.39	0.759086
1023.04	0.360539
1024.69	0.574986
1026.34	1.33624
1028	0.873791
1029.65	0.935157
1031.3	0.427465
1032.95	1.14112
1034.6	0.630606
1036.25	1.2531
1037.9	0.632062
1039.54	1.03497
1041.19	0.981117
1042.84	1.47206
1044.49	1.16036
1046.14	0.633677
1047.78	0.738863
1049.43	1.04111
1051.08	1.23607
1052.72	0.541223
1054.37	0.563528
1056.02	0.411974
1057.66	0.912256
1059.31	0.977387
1060.95	0.433053
1062.6	0.496769
1064.24	1.19015
1065.88	0.447491
1067.53	0.573455
1069.17	0.720112
1070.81	0.627119
1072.45	0.837963
1074.1	-0.0792036
1075.74	0.957404
1077.38	0.867105
1079.02	0.778073
1080.66	0.342869
1082.3	0.53653
1083.94	0.989524
1085.58	0.768771
1087.22	0.849499
1088.86	0.213513
1090.5	0.485485
1092.14	0.647742
1093.78	1.17632
1095.42	0.711573
1097.05	0.938288
1098.69	0.175133
1100.33	0.813922
1101.96	0.485652
1103.6	0.955297
1105.24	0.587227
1106.87	0.649972
1108.51	0.561895
1110.14	0.644811
1111.78	0.661654
1113.41	0.204299
1115.05	0.347364
1116.68	0.403839
1118.31	0.653256
1119.95	0.903009
1121.58	0.639565
1123.21	0.848302
1124.85	1.12205
1126.48	0.776242
1128.11	1.13708
1129.74	0.130117
1131.37	0.492219
1133	0.362879
1134.63	0.639578
1136.26	0.103447
1137.89	-0.0274734
1139.52	0.502717
1141.15	-0.27085
1142.78	0.342869
1144.41	0.188274
1146.04	0.162379
1147.66	0.712813
1149.29	0.795066
1150.92	0.622175
1152.55	0.513271
1154.17	0.893743
1155.8	0.081749
1157.43	0.206281
1159.05	0.245994
1160.68	0.733052
1162.3	0.540673
1163.93	-0.13969
1165.55	0.328588
1167.17	0.158787
1168.8	0.562022
1170.42	0.219563
1172.05	0.172909
1173.67	0.273224
1175.29	0.160033
1176.91	0.258486
1178.54	-0.151422
1180.16	0.519452
1181.78	0.555691
1183.4	0.677126
1185.02	0.143455
1186.64	-0.24262
1188.26	-0.249832
1189.88	-0.13237
1191.5	-0.016943
1193.12	0.0126619
1194.74	0.335309
1196.36	-0.118663
1197.97	0.246032
1199.59	0.255951
1201.21	0.456159
1202.83	0.616898
1204.44	0.0913372
1206.06	0.23587
1207.68	0.965777
1209.29	0.4651
1210.91	1.27773
1212.52	-0.0801172
1214.14	1.08252
1215.75	0.679686
1217.37	0.0468922
1218.98	0.702764
1220.59	0.672086
1222.21	0.870257
1223.82	0.59275
1225.43	0.565641
1227.05	0.436606
1228.66	0.805471
1230.27	0.699762
1231.88	1.1741
1233.49	1.48417
1235.1	1.83685
1236.72	1.77748
1238.33	1.07835
1239.94	0.999968
1241.55	1.06654
1243.16	0.988008
1244.76	1.26043
1246.37	1.55258
1247.98	0.933191
1249.59	0.975209
1251.2	1.20308
1252.8	2.21714
1254.41	1.74258
1256.02	1.97246
1257.62	1.23142
1259.23	1.17415
1260.84	1.30406
1262.44	1.7866
1264.05	1.27521
1265.66	1.52978
1267.26	1.32772
1268.86	1.37339
1270.47	1.77049
1272.07	1.52373
1273.67	1.66983
1275.28	1.25518
1276.88	1.37854
1278.48	1.87383
1280.09	1.41559
1281.69	1.68181
1283.29	1.98927
1284.89	1.09765
1286.49	1.53063
1288.09	1.30307
1289.69	1.77918
1291.29	1.65649
1292.89	1.22383
1294.49	1.1624
1296.09	1.57471
1297.69	2.04698
1299.29	1.7536
1300.89	1.9744
1302.49	1.06057
1304.08	1.48506
1305.68	1.82574
1307.28	1.71333
1308.88	1.41622
1310.47	1.42714
1312.07	2.11399
1313.66	1.30728
1315.26	1.81084
1316.85	1.59997
1318.45	1.90008
1320.04	1.7919
1321.64	1.68294
1323.23	1.34874
1324.83	1.44031
1326.42	2.42343
1328.01	1.98419
1329.61	1.50618
1331.2	1.37475
1332.79	1.22567
1334.38	1.13968
1335.97	1.74157
1337.56	1.33499
1339.16	1.87557
1340.75	1.50731
1342.34	1.78138
1343.93	1.57038
1345.52	1.6598
1347.11	0.766582
1348.7	1.11889
1350.29	1.3329
1351.87	1.44925
1353.46	1.20776
1355.05	1.48747
1356.64	1.06806
1358.22	0.848235
1359.81	1.14682
1361.4	1.34426
1362.98	1.83983
1364.57	1.13828
1366.16	0.935909
1367.74	1.33197
1369.33	1.58957
1370.91	1.39079
1372.5	0.755777
1374.08	0.500039
1375.67	0.9812
1377.25	1.22372
1378.83	1.14737
1380.41	0.433305
1382	1.01124
1383.58	0.971085
1385.16	0.731177
1386.74	1.26585
1388.33	0.628548
1389.91	1.08417
1391.49	0.885563
1393.07	0.529166
1394.65	0.728664
1396.23	0.888248
1397.81	0.769532
1399.39	0.927326
1400.97	1.0246
1402.55	1.14096
1404.13	1.05931
1405.7	0.563025
1407.28	0.838874
1408.86	0.957301
1410.44	0.977421
1412.01	0.819785
1413.59	0.385324
1415.17	0.680391
1416.74	0.698252
1418.32	0.695986
1419.89	0.831923
1421.47	0.496202
1423.04	0.792143
1424.62	0.951815
1426.19	0.482924
1427.77	0.703456
1429.34	0.687556
1430.91	0.867613
1432.49	1.40069
1434.06	0.693141
1435.63	0.968892
1437.2	1.38229
1438.78	1.22618
1440.35	1.44456
1441.92	1.03502
1443.49	1.53023
1445.06	1.90797
1446.63	1.24421
1448.2	1.44542
1449.77	1.96151
1451.34	1.96701
1452.91	1.83543
1454.48	2.25498
1456.05	1.73027
1457.62	1.53924
1459.18	2.17346
1460.75	1.56603
1462.32	1.92088
1463.89	1.80175
1465.45	1.89777
1467.02	0.657499
1468.59	1.18591
1470.15	1.49882
1471.72	1.1849
1473.28	1.40179
1474.85	0.854647
1476.41	1.15118
1477.98	1.05568
1479.54	0.724909
1481.1	0.942911
1482.67	0.768839
1484.23	0.869001
1485.79	0.929602
1487.36	0.617303
1488.92	0.48013
1490.48	0.673948
1492.04	0.396128
1493.61	0.80031
1495.17	0.558022
1496.73	0.393167
1498.29	0.228495
1499.85	0.511745
1501.41	0.542993
1502.97	0.0905132
1504.53	0.414763
1506.09	0.312825
1507.65	0.326525
1509.2	0.281264
1510.76	0.427948
1512.32	1.17084
1513.88	0.467918
1515.43	0.747288
1516.99	0.853761
1518.55	0.884068
1520.1	0.340277
1521.66	0.410184
1523.22	0.441398
1524.77	0.0135984
1526.33	0.310445
1527.88	0.396173
1529.44	0.842367
1530.99	0.432847
1532.54	0.00598907
1534.1	0.0544987
1535.65	0.614563
1537.21	0.380746
1538.76	0.261353
1540.31	0.953405
1541.86	0.683456
1543.42	0.978544
1544.97	0.840409
1546.52	1.22824
1548.07	0.92088
1549.62	0.932751
1551.17	1.26309
1552.72	1.21918
1554.27	1.19501
1555.82	1.11626
1557.37	0.722109
1558.92	0.964652
1560.47	1.20899
1562.02	1.24972
1563.56	0.657319
1565.11	0.550489
1566.66	1.4328
1568.21	1.34459
1569.75	1.47996
1571.3	1.6336
1572.85	2.14163
1574.39	1.95882
1575.94	1.64535
1577.49	1.35075
1579.03	1.70998
1580.57	1.41641
1582.12	1.36634
1583.66	1.57864
1585.21	1.32467
1586.75	1.37013
1588.3	1.13523
1589.84	1.66711
1591.38	1.33788
1592.92	1.32626
1594.47	1.35179
1596.01	1.56473
1597.55	1.40337
1599.09	1.69258
1600.63	1.13862
1602.17	1.72946
1603.71	1.85146
1605.25	1.59713
1606.79	1.77344
1608.33	1.62826
1609.87	1.49948
1611.41	1.89444
1612.95	1.74236
1614.49	1.43891
1616.03	1.0416
1617.57	0.851418
1619.1	1.61804
1620.64	1.59898
1622.18	1.24433
1623.72	1.39613
1625.25	0.799191
1626.79	1.02519
1628.32	1.0253
1629.86	1.39803
1631.39	1.50764
1632.93	1.44859
1634.46	1.20323
1636	1.31342
1637.53	1.48039
1639.07	1.66654
1640.6	1.77805
1642.13	1.70255
1643.67	1.49564
1645.2	1.90181
1646.73	2.1205
1648.26	2.02264
1649.8	1.8696
1651.33	1.69921
1652.86	1.91982
1654.39	1.71498
1655.92	1.78899
1657.45	1.30704
1658.98	1.89891
1660.51	1.58181
1662.04	1.50408
1663.57	1.66558
1665.1	1.32753
1666.63	1.48865
1668.16	1.72439
1669.68	1.79549
1671.21	1.27848
1672.74	1.7392
1674.27	1.64771
1675.79	1.5008
1677.32	1.07712
1678.85	1.1126
1680.37	1.23892
1681.9	1.34594
1683.42	1.61773
1684.95	1.24696
1686.47	0.877
1688	1.02112
1689.52	1.0922
1691.05	0.943734
1692.57	0.740597
1694.09	0.793678
1695.62	0.51746
1697.14	0.716357
1698.66	0.421637
1700.18	0.345856
1701.71	0.543237
1703.23	0.42997
1704.75	0.334538
1706.27	0.420771
1707.79	0.433851
1709.31	0.628457
1710.83	0.387245
1712.35	0.327939
1713.87	-0.329
1715.39	0.427209
1716.91	0.187283
1718.43	0.363297
1719.95	-0.038908
1721.47	0.552058
1722.99	0.205116
1724.5	0.77848
1726.02	0.398072
1727.54	0.253304
1729.06	0.199555
1730.57	0.290652
1732.09	0.522183
1733.61	0.412247
1735.12	0.209088
1736.64	-0.277653
1738.15	0.194095
1739.67	0.27926
1741.18	-0.319086
1742.7	-0.209876
1744.21	0.325297
1745.72	0.226776
1747.24	0.0737877
1748.75	-0.159891
1750.26	0.226346
1751.77	0.0893526
1753.29	0.396749
1754.8	-0.0112009
1756.31	-0.146027
1757.82	0.357964
1759.33	0.108741
1760.84	0.106923
1762.36	0.248386
1763.87	0.239952
1765.38	0.297566
1766.89	0.160693
1768.4	0.142321
1769.91	0.0989408
1771.41	0.147251
1772.92	0.0121517
1774.43	0.402933
1775.94	-0.0316305
1777.45	0.0983076
1778.95	0.424212
1780.46	-0.0834436
1781.97	0.0248928
1783.48	0.279359
1784.98	0.215811
1786.49	0.0393019
1787.99	0.329177
1789.5	0.0247526
1791.01	-0.110152
1792.51	0.0825958
1794.01	0.263326
1795.52	-0.31373
1797.02	0.0916767
1798.53	0.169008
1800.03	0.198581
1801.53	0.204155
1803.04	0.2029
1804.54	-0.266461
1806.04	-0.063139
1807.54	-0.081665
1809.05	0.264305
1810.55	-0.00574493
1812.05	0.129831
1813.55	-0.13762
1815.05	-0.00951862
1816.55	-0.0213156
1818.05	-0.0562267
1819.55	0.388916
1821.05	-0.210316
1822.55	-0.102716
1824.05	0.31389
1825.55	0.0904579
1827.05	-0.0661373
1828.55	0.104293
1830.04	-0.106303
1831.54	-0.0284567
1833.04	-0.0812111
1834.54	0.353514
1836.03	0.280606
1837.53	-0.0930462
1839.03	-0.229912
1840.52	0.374097
1842.02	-0.0403585
1843.51	-0.0313816
1845.01	0.287492
1846.5	0.543786
1848	-0.164714
1849.49	0.0936365
1850.99	0.0731287
1852.48	-0.157871
1853.97	0.504268
1855.47	-0.0983582
1856.96	-0.196026
1858.45	-0.0499916
1859.94	-0.0378256
1861.44	0.228312
1862.93	0.118399
1864.42	0.153253
1865.91	0.248772
1867.4	0.0814304
1868.89	0.241745
1870.38	0.0269136
1871.87	-0.0645027
1873.36	-0.0406342
1874.85	0.153803
1876.34	0.139497
1877.83	0.208449
1879.32	-0.262875
1880.81	-0.250883
1882.3	-0.44927
1882.57	-0.504445
1884.07	0.122392
1885.56	0.364645
1887.06	-0.0908489
1888.55	-0.145958
1890.04	-0.0964212
1891.54	0.162704
1893.03	-0.359169
1894.52	0.424703
1896.02	-0.059165
1897.51	0.257588
1899	0.417774
1900.49	0.159447
1901.98	0.369212
1903.47	0.0902147
1904.96	0.157701
1906.45	0.0853872
1907.94	0.23888
1909.43	0.358118
1910.92	0.217921
1912.41	0.113371
1913.9	0.234861
1915.39	-0.09447
1916.88	0.269469
1918.37	-0.0779047
1919.85	0.475479
1921.34	0.0238295
1922.83	0.161592
1924.32	0.421337
1925.8	-0.0449286
1927.29	0.23424
1928.78	-0.317031
1930.26	0.0319719
1931.75	0.484139
1933.23	0.276828
1934.72	-0.209075
1936.2	0.25541
1937.69	0.320559
1939.17	0.246964
1940.66	0.225574
1942.14	0.136016
1943.63	0.0993109
1945.11	0.477305
1946.59	-0.420257
1948.07	0.2335
1949.56	0.851584
1951.04	0.366156
1952.52	0.689073
1954	0.202835
1955.48	-0.128157
1956.96	0.0911703
1958.45	-0.101006
1959.93	-0.240831
1961.41	0.0314875
1962.89	0.235195
1964.37	0.23295
1965.85	0.0589628
1967.32	0.243903
1968.8	0.239841
1970.28	0.337768
1971.76	0.0424547
1973.24	0.327809
1974.72	0.25469
1976.19	-0.244236
1977.67	-0.0269833
1979.15	0.411338
1980.63	0.236704
1982.1	-0.090848
1983.58	-0.0105743
1985.05	-0.100474
1986.53	-0.0717506
1988	0.363632
1989.48	0.0874491
1990.95	0.184605
1992.43	0.400949
1993.9	0.44901
1995.38	0.430247
1996.85	0.242986
1998.32	-0.0624285
1999.8	0.138406
2001.27	-0.336489
2002.74	-0.0861502
2004.22	-0.207049
2005.69	-0.142159
2007.16	0.613947
2008.63	0.141305
2010.1	-0.12827
2011.57	0.0740519
2013.04	0.108045
2014.51	0.0238075
2015.98	0.275341
2017.45	0.42492
2018.92	0.455889
2020.39	0.217457
2021.86	0.315002
2023.33	0.580634
2024.8	0.309936
2026.27	0.124454
2027.74	0.342953
2029.2	-0.175107
2030.67	0.280958
2032.14	0.234737
2033.61	0.0210629
2035.07	-0.209595
2036.54	0.533574
2038.01	0.453266
2039.47	0.0363913
2040.94	-0.061305
2042.4	0.11035
2043.87	0.316472
2045.33	-0.385052
2046.8	0.378185
2048.26	0.40132
2049.72	0.457834
2051.19	0.12558
2052.65	0.499937
2054.12	0.147379
2055.58	0.0630016
2057.04	-0.106908
2058.5	0.497699
2059.97	0.00685501
2061.43	0.19028
2062.89	0.475368
2064.35	0.626689
2065.81	0.223626
2067.27	0.326262
2068.73	0.429473
2070.19	0.415174
2071.65	0.636621
2073.11	0.117123
2074.57	0.405537
2076.03	0.32318
2077.49	0.54359
2078.95	0.123681
2080.41	0.393756
2081.87	0.595879
2083.32	0.426946
2084.78	0.274198
2086.24	0.339522
2087.7	0.0174799
2089.15	0.50201
2090.61	0.599528
2092.07	0.545776
2093.52	0.894685
2094.98	0.437988
2096.43	0.718753
2097.89	0.596523
2099.34	0.574272
2100.8	0.501585
2102.25	0.796852
2103.71	0.374526
2105.16	0.638214
2106.61	0.586056
2108.07	0.551627
2109.52	0.100657
2110.97	0.282844
2112.43	0.946833
2113.88	0.79243
2115.33	0.852954
2116.78	1.04548
2118.23	1.15498
2119.68	1.13295
2121.13	1.09635
2122.59	0.862758
2124.04	0.879449
2125.49	0.813855
2126.94	0.930357
2128.39	0.830302
2129.83	0.927762
2131.28	1.2557
2132.73	1.41695
2134.18	0.999022
2135.63	1.57441
2137.08	1.3906
2138.53	1.35755
2139.97	1.57439
2141.42	1.11525
2142.87	1.30197
2144.31	1.37367
2145.76	1.59452
2147.21	1.35162
2148.65	1.47225
2150.1	1.57547
2151.54	1.32973
2152.99	1.64628
2154.43	1.6803
2155.88	1.71383
2157.32	2.3438
2158.77	2.39475
2160.21	2.14903
2161.65	1.872
2163.1	1.97806
2164.54	1.52182
2165.98	1.58047
2167.43	1.95476
2168.87	1.43063
2170.31	1.95194
2171.75	1.70606
2173.19	1.79079
2174.64	1.57467
2176.07	1.92346
2177.52	1.57402
2178.96	2.15651
2180.4	2.05837
2181.84	1.74501
2183.28	2.13064
2184.72	2.11751
2186.15	2.15436
2187.59	1.90837
2189.03	2.21154
2190.47	1.79903
2191.91	1.48597
2193.35	1.97124
2194.78	1.53936
2196.22	1.60506
2197.66	1.71853
2199.09	1.36451
2200.53	1.57481
2201.97	1.1704
2203.4	1.11566
2204.84	1.26106
2206.27	1.37421
2207.71	1.1896
2209.14	1.38579
2210.58	1.43202
2212.01	1.31173
2213.45	1.15779
2214.88	1.43338
2216.31	0.982983
2217.75	1.45811
2219.18	1.15904
2220.61	0.959953
2222.05	1.18959
2223.48	0.660492
2224.91	0.756209
2226.34	1.04757
2227.78	0.92578
2229.21	1.00001
2230.64	0.696013
2232.07	0.933227
2233.5	0.826485
2234.93	0.606258
2236.36	0.0445547
2237.79	0.840155
2239.22	0.592435
2240.65	0.50998
2242.08	0.869658
2243.5	0.545503
2244.93	0.759913
2246.36	0.892097
2247.79	0.500776
2249.22	0.172803
2250.64	0.722801
2252.07	0.602894
2253.5	0.80763
2254.92	0.281239
2256.35	0.503874
2257.78	0.533832
2259.2	0.469213
2260.63	0.293839
2262.05	0.834879
2263.48	0.452251
2264.9	0.719483
2266.33	0.726485
2267.75	0.19583
2269.18	0.41248
2270.6	0.791311
2272.02	0.730196
2273.45	0.636316
2274.87	0.379582
2276.29	0.595458
2277.71	0.632332
2279.14	0.63668
2280.56	0.543126
2281.98	0.00900364
2283.4	0.371865
2284.82	0.310654
2286.24	0.249622
2287.66	0.401175
2289.08	0.193903
2290.5	0.019536
2291.92	0.564569
2293.34	0.047143
2294.76	0.281878
2296.18	0.418523
2297.6	0.21134
2299.02	0.298923
2300.44	-0.055768
2301.86	0.245393
2303.27	0.10415
2304.69	0.241961
2306.11	0.659037
2307.53	0.418921
2308.94	0.128746
2310.36	-0.178651
2311.78	0.20426
2313.19	0.291211
2314.61	0.0494175
2316.02	0.0551262
2317.44	0.0945168
2318.85	0.266235
2320.27	-0.320821
2321.68	0.410622
2323.1	-0.130138
2324.51	0.102549
2325.92	0.679505
2327.34	0.660715
2328.75	0.888416
2330.16	0.12783
2331.58	0.373124
2332.99	0.026823
2334.4	0.0270357
2335.81	0.126164
2337.23	0.142572
2338.64	0.158041
2340.05	0.139548
2341.46	0.038085
2342.87	0.330138
2344.28	0.211802
2345.69	0.208609
2347.1	0.107422
2348.51	0.00637722
2349.92	0.788428
2351.33	0.326301
2352.74	0.223254
2354.15	-0.0926085
2355.55	-0.115081
2356.96	0.106426
2358.37	0.229844
2359.78	0.206897
2361.19	0.0704861
2362.59	-0.0332232
2364	-0.120626
2365.41	-0.0784683
2366.81	-0.14934
2368.22	0.00652218
2369.62	0.227586
2371.03	0.0788336
2372.44	0.334273
2373.84	0.13954
2375.24	0.299437
2376.65	0.120948
2378.05	0.649106
2379.46	0.050292
2380.86	-0.0353966
2382.26	-0.00996971
2383.67	0.0466032
2385.07	0.102842
2386.47	0.0395126
2387.88	-0.0866489
2389.28	0.290772
2390.68	0.0155859
2392.08	0.330945
2393.48	-0.00547695
2394.89	0.0727177
2396.29	0.358179
2397.69	0.294415
2399.09	0.27891
2400.49	0.18446
2401.89	0.217402
2403.29	-0.0196056
2404.69	0.409992
2406.09	0.394069
2407.48	0.282055
2408.88	0.201111
2410.28	0.199204
2411.68	0.118313
2413.08	-0.0567379
2414.48	0.0544949
2415.87	0.0879135
2417.27	-0.273217
2418.67	-0.506949
2420.06	0.035574
2421.46	0.0554609
2422.86	0.471083
2424.25	0.316152
2425.65	0.0661736
2427.04	0.292095
2428.44	0.328724
2429.83	0.239409
2431.23	0.0713348
2432.62	0.300116
2434.02	0.322113
2435.41	0.597219
2436.81	0.140094
2438.2	0.0945787
2439.59	0.34968
2440.99	0.492625
2442.38	0.190483
2443.77	0.22153
2445.16	-0.128281
2446.56	0.14038
2447.95	0.0758924
2449.34	0.154015
2450.73	0.216454
2452.12	0.390158
2453.51	0.279702
2454.9	0.0751972
2456.29	0.456691
2457.68	-0.284635
2459.07	-0.0137491
2460.46	-0.123005
2461.85	0.541755
2463.24	0.00416088
2464.63	0.0825834
2466.02	-0.186756
2467.4	0.159678
2468.79	-0.109585
2470.18	-0.252622
2471.57	0.17151
2472.95	0.436987
2474.34	0.244858
2475.73	0.131049
2477.12	0.0170774
2478.5	-0.0967431
2479.89	0.00945759
2481.27	0.17837
2482.66	0.299949
2484.04	-0.0174351
2485.43	-0.0379329
2486.81	-0.0125709
2488.2	-0.0194831
2489.58	0.144363
2490.97	-0.112536
2492.35	-0.0884991
2493.73	0.122797
2495.12	0.210835
2496.5	0.0519233
2497.88	0.0179477
2499.27	-0.0157442
2500.65	-0.266247
2502.03	-0.115263
2503.41	-0.243351
2504.79	-0.387414
2506.17	0.0229554
2507.56	0.247519
2508.94	0.33336
2510.32	0.00480747
2511.7	0.015049
2513.08	0.455182
2514.46	-0.0541644
2515.84	-0.0262623
2517.22	-0.058867
2518.59	0.383004
2519.97	0.213352
2521.35	0.119981
2522.73	0.377144
2524.11	0.00781775
2525.49	-0.254924
2526.86	0.213443
2528.24	-0.0792956
2529.62	0.131182
2530.99	0.11495
2532.37	0.176291
2533.75	0.0109954
2535.12	0.0894494
2536.5	-0.120805
2537.88	0.0936866
2539.25	0.185716
2540.63	0.00363731
2542	-0.0723991
2543.38	0.0643091
2544.75	0.277591
2546.12	-0.311894
2547.5	-0.00532866
2548.87	0.150366
2550.24	0.184768
2551.62	0.036602
2552.99	0.0241556
2554.36	-0.00441074
2555.74	-0.170326
2557.11	0.14871
2558.48	0.1642
2559.85	0.0738292
2561.22	0.0749412
2562.59	0.137269
2563.96	0.169826
2565.34	0.0512457
2566.71	0.235979
2568.08	0.0570922
2569.45	-0.121803
2570.82	-0.133984
2572.18	0.323759
2573.55	0.0540304
2574.92	-0.276291
2576.29	-0.166958
2577.66	-0.11833
2579.03	-0.115385
2580.4	0.251158
2581.77	0.132107
2583.13	-0.305663
2584.5	-0.182638
2585.87	0.440535
2587.23	0.199778
2588.6	0.0501728
2589.97	0.143167
2591.33	0.281486
2592.7	0.207204
2594.06	-0.0647378
2595.43	0.041121
2596.79	0.0248632
2598.16	0.52224
2599.52	0.202296
2600.89	0.200148
2602.25	0.0172625
2603.62	0.167268
2604.98	0.106419
2606.34	-0.059803
2607.71	0.0602818
2609.07	-0.106875
2610.43	-0.365309
2611.79	0.143005
2613.16	-0.102406
2614.52	0.117603
2615.88	0.0668521
2617.24	-0.148448
2618.6	-0.0183344
2619.96	-0.157077
2621.32	0.452667
2622.68	-0.103415
2624.04	0.177644
2625.4	-0.153524
2626.76	-0.245883
2628.12	0.287427
2629.48	-0.0588098
2630.84	-0.0625076
2632.2	0.18642
2633.56	-0.12953
2634.92	-0.029428
2636.28	-0.0481458
2637.63	0.170239
2638.99	-0.0410376
2640.35	0.251172
2641.71	-0.0333567
2643.06	0.318009
2644.42	0.270457
2645.77	0.237645
2647.13	-0.164033
2648.49	-0.138561
2649.84	-0.0108562
2651.2	0.233592
2652.55	0.43321
2653.91	0.177874
2655.26	0.568652
2656.62	-0.00675392
2657.97	0.166159
2659.33	0.281184
2660.68	0.206388
2662.03	-0.0730753
2663.39	0.362891
2664.74	-0.0344167
2666.09	0.00570583
2667.44	0.147352
2668.8	-0.075325
2670.15	0.473738
2671.5	-0.518653
2672.85	0.321604
2674.2	-0.0728927
2675.55	0.0125265
2676.91	-0.0757065
2678.26	0.0542765
2679.61	0.257459
2680.96	0.316577
2682.31	-0.0436277
2683.66	0.293217
2685	0.19596
2686.35	0.1571
2687.7	0.350263
2689.05	0.33915
2690.4	0.282894
2691.75	0.12335
2693.1	-0.0810008
2694.44	0.511497
2695.79	0.509036
2697.14	0.159538
2698.49	0.274911
2699.83	0.261503
2701.18	0.235238
2702.52	0.137928
2703.87	0.157432
2705.22	-0.228522
2706.56	0.211973
2707.91	0.493001
2709.25	-0.0681076
2710.6	0.61893
2711.94	0.14403
2713.29	0.133698
2714.63	0.225058
2715.97	-0.0470939
2717.32	0.204057
2718.66	0.265985
2720.01	0.313046
2721.35	0.185056
2722.69	0.231247
2724.03	-0.246997
2725.38	0.42425
2726.72	0.192702
2728.06	0.0627689
2729.4	-0.125562
2730.74	0.413541
2732.08	0.254155
2733.42	0.153078
2734.76	0.314003
2736.1	0.140566
2737.44	0.025445
2738.78	-0.0460615
2740.12	0.362098
2741.46	0.348059
2742.8	0.115365
2744.14	0.463455
2745.48	0.200584
2746.82	0.431249
2748.16	0.342218
2749.49	-0.00784874
2750.83	-0.0818877
2752.17	0.177799
2753.51	-0.0842195
2754.84	0.103215
2756.18	0.0299511
2757.52	-0.101037
2758.85	0.144648
2760.19	0.0432286
2761.53	0.246175
2762.86	-0.129275
2764.2	-0.0558648
2765.53	-0.0837655
2766.87	0.452129
2768.2	0.176989
2769.54	-0.0558057
2770.87	0.0571289
2772.2	0.255336
2773.54	-0.0382924
2774.87	0.158248
2776.2	-0.192905
2777.54	-0.0106602
2778.87	0.301202
2780.2	-0.507757
2781.53	0.120683
2782.87	-0.0696301
2784.2	0.0987878
2785.53	0.109312
2786.86	0.220264
2788.19	0.202726
2789.52	0.0285525
2790.85	-0.073154
2792.18	-0.00252914
2793.51	0.268589
2794.84	0.0965686
2796.17	0.167214
2797.5	-0.134058
2798.83	-0.0358305
2800.16	0.0904765
2801.49	-0.268581
2802.82	-0.199732
2804.15	-0.131189
2805.47	0.193237
2806.8	-0.280336
2808.13	-0.0569067
2809.46	0.464261
2810.78	0.118432
2812.11	0.0291066
2813.44	0.0260224
2814.76	0.109313
2816.09	0.0379424
2817.42	0.208536
2818.74	0.266251
2820.07	0.182221
2821.39	0.310368
2822.72	-0.157313
2824.04	0.267197
2825.37	0.237943
2826.69	0.152102
2828.02	-0.0606561
2829.34	0.321727
2830.66	0.520444
2831.99	0.0823388
2833.31	0.323636
2834.63	0.281525
2835.96	0.210666
2837.28	0.21009
2838.6	0.421306
2839.92	0.717076
2841.24	0.588653
2842.57	0.686837
2843.89	0.615988
2845.21	0.983906
2846.53	1.16866
2847.85	0.717758
2849.17	0.987648
2850.49	0.932188
2851.81	0.904541
2853.13	1.18735
2854.45	1.00342
2855.77	1.1726
2857.09	1.42647
2858.41	1.41194
2859.72	1.35503
2861.04	1.26973
2862.36	1.53709
2863.68	1.32412
2865	1.78829
2866.31	2.0124
2867.63	2.12381
2868.95	2.09459
2870.26	2.10806
2871.58	1.9807
2872.9	2.19135
2874.21	2.57027
2875.53	2.31413
2876.84	2.18387
2878.16	2.51733
2879.47	2.62516
2880.79	2.22718
2882.1	2.50471
2883.42	2.16505
2884.73	2.3881
2886.05	2.54138
2887.36	2.72272
2888.67	2.53871
2889.99	2.70474
2891.3	2.4492
2892.61	2.7399
2893.92	2.75002
2895.24	2.55045
2896.55	2.46376
2897.86	2.71393
2899.17	2.55919
2900.48	3.00675
2901.79	3.17489
2903.11	3.24528
2904.42	3.02204
2905.73	3.24667
2907.04	3.45784
2908.35	2.98434
2909.66	4.06454
2910.97	3.76024
2912.27	3.7917
2913.58	3.97642
2914.89	3.73979
2916.2	4.25748
2917.51	4.28361
2918.82	4.28078
2920.13	4.38971
2921.43	4.12172
2922.74	4.44216
2924.05	4.94555
2925.35	4.835
2926.66	5.15836
2927.97	5.32801
2929.27	4.86815
2930.58	5.37234
2931.89	5.24695
2933.19	5.24711
2934.5	5.05157
2935.8	5.19159
2937.11	4.95442
2938.41	5.03885
2939.72	4.94188
2941.02	4.83144
2942.32	4.66592
2943.63	5.0606
2944.93	4.12866
2946.24	4.52584
2947.54	4.26629
2948.84	4.16024
2950.14	3.75896
2951.45	3.5659
2952.75	3.66511
2954.05	3.95902
2955.35	3.87453
2956.65	3.84692
2957.95	3.33136
2959.26	2.8321
2960.56	3.72174
2961.86	3.54897
2963.16	3.72737
2964.46	3.21749
2965.76	3.4361
2967.06	2.89443
2968.36	2.99784
2969.66	2.51
2970.96	2.76729
2972.25	2.40592
2973.55	2.43869
2974.85	2.72482
2976.15	2.53175
2977.45	2.46416
2978.74	2.71881
2980.04	2.12713
2981.34	2.04118
2982.64	2.23608
2983.93	2.05155
2985.23	1.86814
2986.52	1.7986
2987.82	1.5196
2989.12	1.43818
2990.41	1.42723
2991.71	1.21905
2993	1.2629
2994.3	1.34773
2995.59	0.855619
2996.89	1.47235
2998.18	1.27442
2999.48	0.992713
3000.77	0.893979
3002.06	0.697704
3003.36	0.613997
3004.65	0.95065
3005.94	0.852707
3007.23	0.502287
3008.53	0.557158
3009.82	0.611153
3011.11	0.83204
3012.4	0.284329
3013.69	0.379163
3014.99	0.446326
3016.28	0.346846
3017.57	0.498729
3018.86	0.275196
3020.15	0.510865
3021.44	0.287175
3022.73	0.354649
3024.02	0.407225
3025.31	0.0708318
3026.6	0.44121
3027.89	-0.212591
3029.18	-0.0624442
3030.46	0.0335026
3031.75	0.19967
3033.04	-0.157978
3034.33	0.119681
3035.62	0.231077
3036.9	0.313572
3038.19	0.352961
3039.48	0.170339
3040.76	0.06918
3042.05	0.0909781
3043.34	0.263428
3044.62	0.244571
3045.91	0.281944
3047.19	0.580782
3048.48	0.458183
3049.77	0.092
3051.05	0.273216
3052.34	0.427824
3053.62	0.309503
3054.9	0.313359
3056.19	0.616268
3057.47	0.222678
3058.76	0.182973
3060.04	0.183915
3061.32	0.511766
3062.61	0.30973
3063.89	0.109111
3065.17	0.195444
3066.45	0.595696
3067.74	0.453048
3069.02	0.337895
3070.3	-0.131183
3071.58	0.174153
3072.86	0.315132
3074.14	0.0470586
3075.42	0.0908699
3076.7	0.147921
3077.99	0.150989
3079.26	0.222864
3080.54	0.173977
3081.82	0.0179844
3083.1	0.202235
3084.38	-0.291311
3085.66	-0.0928569
3086.94	0.105247
3088.22	-0.104492
3089.5	-0.00268269
3090.78	0.0715389
3092.05	0.0777593
3093.33	-0.0379701
3094.61	-0.0177922
3095.89	-0.0380683
3097.16	0.0230565
3098.44	0.0027647
3099.72	-0.0583072
3100.99	-0.187168
3102.27	-0.00444269
3103.54	0.16488
3104.82	-0.125623
3106.1	0.139492
3107.37	0.107665
3108.65	-0.153301
3109.92	0.00621462
3111.2	-0.0228858
3112.47	0.17892
3113.74	0.00183344
3115.02	0.000801086
3116.29	0.0128841
3117.56	0.241188
3118.84	0.0480456
3120.11	-0.105398
3121.38	0.255572
3122.66	0.209167
3123.93	0.433535
3125.2	-0.249289
3126.47	0.110967
3127.74	0.173801
3129.01	0.209991
3130.29	0.381682
3131.56	-0.136001
3132.83	0.116691
3134.1	-0.279477
3135.37	0.0127482
3136.64	0.412044
3137.91	0.365419
3139.18	0.372367
3140.45	0.298384
3141.72	0.318698
3142.99	0.0167665
3144.26	0.306453
3145.52	0.0998969
3146.79	0.175731
3148.06	-0.417769
3149.33	0.127984
