200.43	-0.136076
202.244	-0.109952
204.059	-0.0827847
205.873	0.188444
207.688	0.556975
209.501	0.317149
211.314	-0.117795
213.127	-0.0679998
214.941	0.635613
216.753	0.271142
218.564	-0.141209
220.375	0.101027
222.186	-0.502829
223.999	0.297023
225.809	0.371631
227.618	-0.375103
229.428	0.230626
231.236	-0.202542
233.045	0.184576
234.855	0.0893898
236.663	-0.00464916
238.471	0.0478144
240.278	-0.162632
242.085	0.159294
243.891	0.337946
245.698	0.299477
247.503	-0.126781
249.309	0.651653
251.116	0.292336
252.921	-0.479757
254.725	0.0257378
256.529	0.530256
258.333	0.528921
260.136	-0.193653
261.939	0.314283
263.742	0.24553
265.544	-0.183715
267.346	0.0137548
269.148	0.0663509
270.949	0.0699682
272.75	0.0242748
274.55	0.531786
276.351	0.434971
278.15	-0.386477
279.95	-0.366037
281.749	0.32649
283.548	-0.138138
285.346	-0.242868
287.144	0.0598907
288.942	0.290046
290.739	-0.0305691
292.536	0.751518
294.333	0.577138
296.129	-0.169487
297.925	-0.699458
299.721	0.300406
301.514	0.129079
303.309	0.219736
305.104	0.380751
306.898	-0.031743
308.692	0.509465
310.486	-0.0930872
312.279	0.0918283
314.072	0.0637445
315.862	0.537279
317.654	0.131369
319.446	-0.130475
321.238	0.204294
323.029	0.0869589
324.819	0.351612
326.608	0.54499
328.398	0.212752
330.188	-0.0966272
331.977	0.740633
333.766	0.428493
335.553	0.736358
337.341	0.874577
339.129	0.651855
340.917	0.49949
342.704	-0.0838394
344.489	0.575677
346.275	0.136385
348.062	-0.158788
349.845	0.0717573
351.631	0.230604
353.416	-0.279283
355.201	0.40289
356.984	0.320296
358.768	0.498685
360.552	-0.110118
362.333	-0.19541
364.116	0.00407791
365.899	0.392618
367.68	-0.407054
369.462	0.311589
371.243	-0.34587
373.023	-0.411043
374.804	0.657925
376.585	0.0956812
378.363	0.242483
380.143	0.201287
381.923	-0.0742273
383.7	0.00454426
385.479	0.836551
387.256	0.399951
389.034	0.199557
390.812	0.822114
392.588	0.294478
394.365	0.495425
396.14	-0.148794
397.916	0.733585
399.691	0.277061
401.467	0.524735
403.24	-0.191207
405.015	-0.297105
406.788	0.0425053
408.563	0.0997095
410.335	0.297379
412.109	0.119463
413.88	-0.550861
415.654	-0.0473566
417.424	-0.0594645
419.197	0.374808
420.967	0.715492
422.739	0.187494
424.508	-0.0595627
426.279	-0.190063
428.048	-0.133513
429.819	0.227724
431.587	0.283689
433.356	0.175595
435.124	-0.354703
436.891	0.429235
438.66	0.297238
440.426	-0.0472069
442.194	0.427793
443.96	0.431533
445.725	0.644404
447.492	0.0600138
449.257	0.107563
451.021	0.225149
452.787	0.389465
454.551	0.32043
456.314	0.111615
458.079	0.159142
459.842	-0.142455
461.604	-0.326838
463.368	0.117726
465.13	1.35392
466.891	0.338656
468.654	0.51081
470.415	0.103369
472.175	0.60349
473.935	0.218779
475.696	0.437751
477.456	0.305464
479.215	0.404445
480.973	0.549067
482.733	-0.470763
484.491	-0.185405
486.249	0.12485
488.006	0.110788
489.765	0.541582
491.522	0.437019
493.278	0.309466
495.034	0.415689
496.789	0.849721
498.544	0.885955
500.301	0.499705
502.056	0.44076
503.81	0.310451
505.564	-0.244118
507.317	0.234215
509.071	-0.11172
510.825	0.623168
512.578	0.815605
514.33	0.865473
516.082	0.278884
517.833	1.10257
519.585	0.655274
521.335	0.959554
523.086	0.323697
524.836	0.275075
526.586	0.554874
528.335	0.224762
530.085	0.269828
531.835	0.665799
533.584	1.08399
535.332	0.0269346
537.08	0.746487
538.827	0.109328
540.574	0.218747
542.321	0.67659
544.068	0.667673
545.814	0.891078
547.56	0.71954
549.305	0.594963
551.05	-0.200686
552.795	0.115824
554.54	-0.00723267
556.282	0.539573
558.025	0.647444
559.769	0.248671
561.512	0.495603
563.255	0.76562
564.997	0.3232
566.739	-0.278889
568.481	0.176414
570.223	0.769822
571.964	0.400473
573.705	-0.380238
575.443	-0.150165
577.183	-0.331728
578.923	0.1763
580.663	0.570581
582.402	-0.16063
584.141	-0.318251
585.879	0.328113
587.615	0.26066
589.353	0.14612
591.09	-0.0842886
592.828	0.237018
594.564	-0.615214
596.299	0.0280361
598.035	-0.203029
599.771	0.370826
601.506	0.299779
603.242	0.411655
604.974	0.407251
606.709	0.332762
608.443	0.441341
610.177	-0.00117302
611.908	-0.0758128
613.642	-0.172693
615.374	0.808223
617.105	-0.021368
618.837	0.248522
620.569	0.471471
622.3	-0.038949
624.03	0.387835
625.761	0.745435
627.491	-0.0608582
629.219	0.0708771
630.949	0.295725
632.677	0.933038
634.406	0.33902
636.135	0.61198
637.861	0.541093
639.59	0.102754
641.318	0.597445
643.043	-0.0957527
644.77	-0.0829959
646.495	-0.206539
648.222	0.603534
649.948	0.233843
651.672	0.0492697
653.398	-0.268594
655.121	0.621431
656.846	0.513118
658.569	0.542186
660.293	0.434074
662.015	0.712661
663.738	0.601161
665.46	0.921807
667.183	0.532019
668.903	0.324354
670.626	0.711914
672.346	0.277519
674.067	0.23399
675.787	0.375531
677.508	1.06907
679.226	0.592827
680.947	1.05737
682.665	0.301731
684.385	0.625219
686.102	0.532755
687.821	0.323703
689.538	0.620424
691.254	0.432796
692.972	0.38283
694.688	0.769847
696.406	0.764406
698.121	0.965109
699.835	0.911415
701.552	0.741732
703.266	0.893181
704.98	0.722244
706.695	0.688774
708.409	0.907247
710.121	0.506361
711.836	0.655259
713.548	0.689263
715.26	1.13437
716.973	1.30461
718.685	1.42902
720.396	1.39381
722.108	1.24494
723.818	0.755079
725.528	1.12981
727.238	0.663243
728.949	1.24098
730.658	0.774389
732.367	1.62195
734.075	0.861238
735.785	0.825348
737.493	1.21887
739.2	1.54457
740.907	1.01401
742.614	1.56655
744.322	1.44422
746.028	1.72838
747.734	1.42872
749.439	1.19789
751.144	1.53055
752.849	0.807223
754.555	1.52471
756.26	1.36623
757.963	1.18649
759.667	1.07541
761.37	0.78481
763.073	1.21625
764.775	1.33202
766.477	1.62771
768.179	1.33436
769.883	1.69459
771.584	1.71388
773.285	1.93537
774.986	1.72676
776.686	1.45081
778.386	1.46993
780.085	1.92012
781.785	2.03224
783.484	1.62408
785.182	2.256
786.881	1.6182
788.579	1.56616
790.276	2.12195
791.974	1.81559
793.671	1.30502
795.367	1.67492
797.064	1.63923
798.76	1.80775
800.456	1.59506
802.151	1.76633
803.846	1.62324
805.541	1.43519
807.234	1.74093
808.928	2.06774
810.622	1.69736
812.315	1.9994
814.008	2.09875
815.701	1.74997
817.394	1.51357
819.086	1.54581
820.778	2.15873
822.468	2.48096
824.159	1.75549
825.85	2.36924
827.541	2.42752
829.231	1.93164
830.921	1.23814
832.609	2.1286
834.298	1.97415
835.987	2.53423
837.676	2.26907
839.364	2.27049
841.051	1.68966
842.738	1.55413
844.426	1.5298
846.113	1.43898
847.798	1.99807
849.484	1.35178
851.171	2.11745
852.857	1.49664
854.54	1.6383
856.226	1.35337
857.911	1.96626
859.593	1.65612
861.278	1.56906
862.961	1.2101
864.645	1.32297
866.327	1.29984
868.01	1.25358
869.692	1.09412
871.373	1.56595
873.055	1.29323
874.735	1.13319
876.416	1.24391
878.097	1.33211
879.776	1.05908
881.457	1.14688
883.135	1.18893
884.815	1.07202
886.495	0.728246
888.172	0.992533
889.851	1.18758
891.528	1.04308
893.206	1.12281
894.882	0.908883
896.56	1.36881
898.237	1.17568
899.912	1.16162
901.589	1.55014
903.263	1.0869
904.94	1.675
906.614	1.41367
908.289	1.39875
909.962	1.29559
911.635	0.993227
913.31	0.86986
914.982	1.72403
916.656	0.979452
918.328	1.14489
920.001	1.50936
921.672	1.05518
923.345	1.31006
925.015	1.43348
926.685	1.0506
928.357	1.17716
930.026	1.56956
931.698	1.16817
933.366	1.2966
935.035	1.22665
936.705	1.59818
938.373	1.41909
940.041	1.0867
941.71	0.512612
943.377	0.865669
945.044	1.30708
946.712	0.908853
948.378	0.509025
950.044	0.703585
951.709	1.00731
953.376	0.847699
955.041	0.226417
956.706	0.952575
958.372	0.645028
960.036	1.31075
961.699	0.587193
963.362	1.01196
965.027	1.34738
966.69	1.17184
968.352	0.374222
970.014	0.902297
971.676	0.832214
973.339	0.740406
975	0.384477
976.661	0.981016
978.322	0.893325
979.982	0.938959
981.642	0.984305
983.303	1.40486
984.962	1.53592
986.621	1.20024
988.28	1.39412
989.938	1.05596
991.596	1.29218
993.254	0.953704
994.911	0.814366
996.57	0.410547
998.227	0.271777
999.884	1.1246
1001.54	1.24931
1003.2	0.955338
1004.85	0.705472
1006.51	0.236108
1008.16	0.623938
1009.82	1.31872
1011.47	0.412085
1013.12	1.1288
1014.78	0.749837
1016.43	0.678137
1018.08	1.43841
1019.74	1.01769
1021.39	0.948033
1023.04	0.420388
1024.69	0.352716
1026.34	0.87557
1028	0.830256
1029.65	0.784423
1031.3	0.824927
1032.95	0.64572
1034.6	0.879819
1036.25	0.676354
1037.9	1.03889
1039.54	1.27015
1041.19	1.06662
1042.84	0.799315
1044.49	0.794558
1046.14	1.0087
1047.78	1.02899
1049.43	1.31138
1051.08	0.921636
1052.72	0.706302
1054.37	0.925807
1056.02	0.79767
1057.66	0.169239
1059.31	0.54035
1060.95	0.171708
1062.6	0.780907
1064.24	0.823956
1065.88	0.822609
1067.53	0.516041
1069.17	0.534723
1070.81	0.313954
1072.45	0.939824
1074.1	0.632573
1075.74	1.02054
1077.38	0.476964
1079.02	1.04054
1080.66	0.73738
1082.3	0.434247
1083.94	0.759211
1085.58	0.887582
1087.22	0.234063
1088.86	0.597251
1090.5	0.0929604
1092.14	0.0208845
1093.78	0.488431
1095.42	0.674741
1097.05	0.236293
1098.69	0.208938
1100.33	1.00111
1101.96	0.287911
1103.6	1.1256
1105.24	1.21134
1106.87	0.0501547
1108.51	0.415859
1110.14	0.307535
1111.78	0.176482
1113.41	0.989395
1115.05	0.748324
1116.68	0.592854
1118.31	0.416243
1119.95	0.647499
1121.58	0.151324
1123.21	0.277209
1124.85	0.382428
1126.48	0.210266
1128.11	0.423763
1129.74	0.317075
1131.37	0.381937
1133	0.147767
1134.63	0.875444
1136.26	0.704757
1137.89	0.298198
1139.52	0.617108
1141.15	0.44384
1142.78	-0.071125
1144.41	0.20367
1146.04	0.670638
1147.66	0.626611
1149.29	-0.0557747
1150.92	0.1572
1152.55	-0.204873
1154.17	0.1781
1155.8	-0.205651
1157.43	0.283045
1159.05	0.21873
1160.68	0.431594
1162.3	0.00747108
1163.93	0.179564
1165.55	0.330832
1167.17	-0.155951
1168.8	0.653331
1170.42	0.355654
1172.05	0.18402
1173.67	0.499417
1175.29	0.622373
1176.91	0.2783
1178.54	-0.298085
1180.16	0.396969
1181.78	-0.0716095
1183.4	0.348879
1185.02	0.494251
1186.64	-0.50158
1188.26	-0.146867
1189.88	-0.405606
1191.5	0.240009
1193.12	0.167901
1194.74	0.158273
1196.36	0.0438671
1197.97	0.433032
1199.59	-0.0556726
1201.21	0.816655
1202.83	0.520662
1204.44	1.08292
1206.06	0.540909
1207.68	0.563541
1209.29	0.75331
1210.91	0.316666
1212.52	0.837899
1214.14	0.377365
1215.75	0.498556
1217.37	0.950835
1218.98	0.653193
1220.59	0.625919
1222.21	0.578539
1223.82	0.863837
1225.43	1.27424
1227.05	0.733624
1228.66	0.691201
1230.27	0.691257
1231.88	1.25047
1233.49	1.10785
1235.1	0.470343
1236.72	1.05331
1238.33	0.583008
1239.94	0.981578
1241.55	1.71146
1243.16	0.951838
1244.76	1.59829
1246.37	1.16791
1247.98	1.48153
1249.59	1.33923
1251.2	1.71386
1252.8	1.01297
1254.41	1.3677
1256.02	0.958069
1257.62	1.2528
1259.23	0.907233
1260.84	1.32812
1262.44	1.62551
1264.05	1.4467
1265.66	1.30884
1267.26	1.647
1268.86	0.802711
1270.47	1.63677
1272.07	1.4125
1273.67	1.39463
1275.28	1.31369
1276.88	1.04546
1278.48	1.77098
1280.09	1.21159
1281.69	1.3147
1283.29	1.27299
1284.89	1.37656
1286.49	1.79093
1288.09	1.4
1289.69	1.89865
1291.29	1.86042
1292.89	2.00808
1294.49	1.30804
1296.09	1.6398
1297.69	1.88728
1299.29	1.76158
1300.89	2.06758
1302.49	2.02173
1304.08	1.72809
1305.68	1.57826
1307.28	1.40772
1308.88	1.60656
1310.47	1.84595
1312.07	1.20489
1313.66	1.54747
1315.26	1.56336
1316.85	0.742989
1318.45	1.51573
1320.04	2.02218
1321.64	1.44741
1323.23	1.74735
1324.83	1.25234
1326.42	2.25951
1328.01	1.47943
1329.61	1.85598
1331.2	1.70722
1332.79	1.17691
1334.38	2.12335
1335.97	1.31456
1337.56	1.65677
1339.16	1.43365
1340.75	1.37049
1342.34	1.18482
1343.93	1.15862
1345.52	1.37239
1347.11	1.48547
1348.7	1.07901
1350.29	1.71612
1351.87	0.754566
1353.46	0.675415
1355.05	0.977178
1356.64	0.699626
1358.22	0.961245
1359.81	0.922359
1361.4	1.3616
1362.98	0.702513
1364.57	1.20015
1366.16	1.03992
1367.74	0.920357
1369.33	0.722311
1370.91	1.32161
1372.5	0.688205
1374.08	0.971134
1375.67	1.43374
1377.25	1.18011
1378.83	1.02553
1380.41	0.511963
1382	0.534602
1383.58	0.993639
1385.16	1.03404
1386.74	0.895185
1388.33	1.11402
1389.91	0.618649
1391.49	0.719679
1393.07	0.821309
1394.65	0.804225
1396.23	0.52923
1397.81	0.848495
1399.39	0.869471
1400.97	0.632142
1402.55	0.0382643
1404.13	0.592443
1405.7	1.54192
1407.28	0.870563
1408.86	0.299236
1410.44	0.71631
1412.01	0.659195
1413.59	0.917468
1415.17	0.464456
1416.74	0.819731
1418.32	0.918054
1419.89	0.661951
1421.47	1.1552
1423.04	0.999845
1424.62	0.826282
1426.19	1.91346
1427.77	0.875449
1429.34	1.05751
1430.91	0.884535
1432.49	0.769668
1434.06	1.91311
1435.63	1.30511
1437.2	0.835277
1438.78	1.62429
1440.35	1.96188
1441.92	1.76967
1443.49	1.77463
1445.06	1.64237
1446.63	1.96234
1448.2	1.51585
1449.77	1.20714
1451.34	1.5476
1452.91	1.90832
1454.48	1.69907
1456.05	1.68645
1457.62	2.10622
1459.18	1.87546
1460.75	1.46602
1462.32	1.23216
1463.89	1.646
1465.45	1.2526
1467.02	1.29146
1468.59	0.957547
1470.15	0.801308
1471.72	1.23464
1473.28	0.62916
1474.85	1.20113
1476.41	0.440023
1477.98	0.777052
1479.54	1.21196
1481.1	0.666672
1482.67	1.25808
1484.23	0.497228
1485.79	0.559131
1487.36	0.13077
1488.92	0.817585
1490.48	0.836954
1492.04	0.698052
1493.61	0.713836
1495.17	0.454957
1496.73	0.13735
1498.29	0.4236
1499.85	0.359714
1501.41	-0.0137839
1502.97	0.758636
1504.53	0.619663
1506.09	0.0746617
1507.65	0.709887
1509.2	0.550914
1510.76	0.449227
1512.32	0.0194597
1513.88	0.475813
1515.43	0.835015
1516.99	-0.0156713
1518.55	0.325167
1520.1	0.531647
1521.66	0.756995
1523.22	-0.0696788
1524.77	0.154963
1526.33	-0.02215
1527.88	0.581186
1529.44	0.726027
1530.99	0.452713
1532.54	1.01485
1534.1	0.648347
1535.65	0.22686
1537.21	0.46836
1538.76	0.577798
1540.31	0.536481
1541.86	0.796736
1543.42	1.20697
1544.97	0.82655
1546.52	0.953836
1548.07	0.836798
1549.62	0.532525
1551.17	0.772027
1552.72	1.06759
1554.27	0.484971
1555.82	1.23041
1557.37	1.08043
1558.92	1.11886
1560.47	1.08427
1562.02	1.06971
1563.56	0.757604
1565.11	1.24824
1566.66	1.29122
1568.21	0.587451
1569.75	1.45113
1571.3	0.933259
1572.85	1.36712
1574.39	1.37152
1575.94	1.20792
1577.49	1.00714
1579.03	1.08672
1580.57	1.3162
1582.12	1.19157
1583.66	1.10495
1585.21	1.07497
1586.75	1.3258
1588.3	0.978425
1589.84	1.37906
1591.38	1.21807
1592.92	1.41232
1594.47	1.64389
1596.01	0.863882
1597.55	1.56433
1599.09	1.42213
1600.63	1.26164
1602.17	1.57059
1603.71	1.18506
1605.25	1.83186
1606.79	1.72623
1608.33	2.12631
1609.87	1.28388
1611.41	1.4168
1612.95	1.39767
1614.49	1.41496
1616.03	1.07548
1617.57	0.718044
1619.1	1.37359
1620.64	1.69274
1622.18	0.889472
1623.72	1.0794
1625.25	1.21316
1626.79	1.47724
1628.32	1.74006
1629.86	1.21604
1631.39	0.69166
1632.93	1.62444
1634.46	1.71633
1636	1.62225
1637.53	1.52905
1639.07	1.97713
1640.6	1.26943
1642.13	1.62364
1643.67	2.06968
1645.2	1.47202
1646.73	1.87851
1648.26	1.61518
1649.8	1.53823
1651.33	1.6292
1652.86	1.75825
1654.39	1.86962
1655.92	2.11124
1657.45	1.83384
1658.98	2.14864
1660.51	1.68449
1662.04	2.38507
1663.57	1.56778
1665.1	2.0257
1666.63	1.5235
1668.16	1.88976
1669.68	1.88822
1671.21	1.55637
1672.74	1.64934
1674.27	1.35596
1675.79	1.63327
1677.32	1.74407
1678.85	1.79864
1680.37	1.08
1681.9	1.15166
1683.42	1.13112
1684.95	1.2024
1686.47	1.1455
1688	1.18068
1689.52	0.959678
1691.05	0.99544
1692.57	0.84822
1694.09	0.792547
1695.62	0.425994
1697.14	0.863586
1698.66	0.314289
1700.18	0.29456
1701.71	0.475062
1703.23	0.199243
1704.75	0.506127
1706.27	0.448247
1707.79	0.46294
1709.31	0.441205
1710.83	0.147339
1712.35	0.107958
1713.87	0.358639
1715.39	0.22879
1716.91	0.533212
1718.43	0.0598812
1719.95	0.363754
1721.47	0.55899
1722.99	-0.111039
1724.5	0.139483
1726.02	0.0845628
1727.54	0.174698
1729.06	0.121561
1730.57	-0.11
1732.09	0.088088
1733.61	0.195314
1735.12	0.150993
1736.64	0.0518494
1738.15	-0.03651
1739.67	0.140378
1741.18	-0.248936
1742.7	0.11644
1744.21	-0.00514889
1745.72	-0.240288
1747.24	-0.153611
1748.75	0.117646
1750.26	0.306301
1751.77	0.452669
1753.29	-0.103933
1754.8	0.184719
1756.31	-0.00415897
1757.82	0.0534253
1759.33	0.11567
1760.84	-0.11851
1762.36	-0.0294852
1763.87	-0.144179
1765.38	-0.0247769
1766.89	0.0909724
1768.4	0.119894
1769.91	-0.188971
1771.41	0.00185585
1772.92	0.274949
1774.43	-0.027432
1775.94	0.0728354
1777.45	0.0193505
1778.95	0.0850735
1780.46	0.0962934
1781.97	0.172417
1783.48	-0.139425
1784.98	0.0999465
1786.49	-0.18543
1787.99	-0.19927
1789.5	-0.0643473
1791.01	0.165454
1792.51	-0.116664
1794.01	-0.186696
1795.52	0.161039
1797.02	0.185018
1798.53	0.0285282
1800.03	-0.00155544
1801.53	-0.0410285
1803.04	0.0765967
1804.54	-0.0851765
1806.04	0.0803165
1807.54	0.0619369
1809.05	-0.0732517
1810.55	0.199988
1812.05	-0.202224
1813.55	0.0601192
1815.05	0.0859857
1816.55	-0.151127
1818.05	-0.339318
1819.55	-0.0180902
1821.05	0.0593133
1822.55	0.200334
1824.05	0.133103
1825.55	0.0273428
1827.05	-0.135798
1828.55	0.159737
1830.04	0.168563
1831.54	-0.141432
1833.04	-0.0529575
1834.54	0.224781
1836.03	0.153371
1837.53	0.168491
1839.03	0.0706449
1840.52	-0.0210891
1842.02	-0.0897608
1843.51	-0.177662
1845.01	-0.00452614
1846.5	-0.00943613
1848	0.0699677
1849.49	-0.0879951
1850.99	-0.322487
1852.48	0.255183
1853.97	0.000413418
1855.47	0.260219
1856.96	-0.0135365
1858.45	-0.0763369
1859.94	0.00178766
1861.44	-0.0651226
1862.93	0.112683
1864.42	0.111661
1865.91	0.301095
1867.4	0.343454
1868.89	0.228225
1870.38	0.261307
1871.87	0.167874
1873.36	0.101514
1874.85	0.0980053
1876.34	0.467755
1877.83	0.408275
1879.32	0.312439
1880.81	0.314853
1882.3	0.0257716
1882.57	-0.0419745
1884.07	0.271362
1885.56	0.0784979
1887.06	-0.289028
1888.55	-0.0820913
1890.04	0.211772
1891.54	0.140941
1893.03	0.245278
1894.52	-0.0314722
1896.02	-0.0810428
1897.51	0.322162
1899	-0.00518608
1900.49	0.484231
1901.98	0.10255
1903.47	0.258744
1904.96	0.135567
1906.45	-0.109708
1907.94	0.131479
1909.43	0.251411
1910.92	0.562849
1912.41	0.597283
1913.9	0.04248
1915.39	0.250911
1916.88	-0.147795
1918.37	-0.0960808
1919.85	0.111205
1921.34	-0.184003
1922.83	-0.0631423
1924.32	0.110268
1925.8	0.163332
1927.29	0.00946903
1928.78	0.340861
1930.26	0.63765
1931.75	0.241108
1933.23	0.328271
1934.72	0.413981
1936.2	0.221466
1937.69	0.49507
1939.17	0.0595603
1940.66	-0.029799
1942.14	0.244001
1943.63	0.0698633
1945.11	0.172416
1946.59	-0.310939
1948.07	0.463843
1949.56	0.203876
1951.04	0.373796
1952.52	-0.128273
1954	0.315607
1955.48	0.243334
1956.96	-0.223485
1958.45	0.237528
1959.93	-0.0218363
1961.41	0.233843
1962.89	0.129517
1964.37	0.247847
1965.85	0.691025
1967.32	0.363
1968.8	0.0519433
1970.28	0.509998
1971.76	0.181512
1973.24	-0.0953398
1974.72	0.156996
1976.19	0.392075
1977.67	-0.0543175
1979.15	0.24887
1980.63	0.0923738
1982.1	0.156924
1983.58	0.0343041
1985.05	0.369866
1986.53	0.636878
1988	0.327291
1989.48	0.136964
1990.95	-0.0356402
1992.43	0.249328
1993.9	-0.0399818
1995.38	0.296818
1996.85	0.042449
1998.32	-0.0429173
1999.8	-0.0779166
2001.27	-0.113344
2002.74	0.137615
2004.22	0.135361
2005.69	-0.153065
2007.16	0.249884
2008.63	-0.138099
2010.1	0.11448
2011.57	-0.0702872
2013.04	-0.0361776
2014.51	0.132217
2015.98	0.215816
2017.45	0.180926
2018.92	0.145424
2020.39	0.378366
2021.86	0.476617
2023.33	0.474339
2024.8	0.45593
2026.27	0.304307
2027.74	-0.0138412
2029.2	0.323295
2030.67	0.409925
2032.14	0.161729
2033.61	0.299846
2035.07	-0.132954
2036.54	0.172823
2038.01	0.108685
2039.47	0.111443
2040.94	0.332703
2042.4	0.419855
2043.87	0.103983
2045.33	0.629932
2046.8	0.584572
2048.26	0.101416
2049.72	0.207368
2051.19	0.295759
2052.65	0.0962768
2054.12	0.435041
2055.58	0.249637
2057.04	0.282407
2058.5	0.381946
2059.97	0.245488
2061.43	0.580909
2062.89	0.0583196
2064.35	0.294065
2065.81	0.32859
2067.27	0.279627
2068.73	0.113292
2070.19	-0.103349
2071.65	0.302908
2073.11	0.136677
2074.57	0.357506
2076.03	0.325502
2077.49	0.562656
2078.95	-0.160387
2080.41	0.934865
2081.87	0.0932531
2083.32	0.328712
2084.78	0.327885
2086.24	0.915228
2087.7	-0.0620999
2089.15	0.843385
2090.61	0.20249
2092.07	0.888455
2093.52	0.751441
2094.98	0.413119
2096.43	0.443509
2097.89	0.674304
2099.34	0.569562
2100.8	0.665403
2102.25	0.360266
2103.71	0.557169
2105.16	0.587973
2106.61	0.736637
2108.07	0.752622
2109.52	0.50206
2110.97	0.834622
2112.43	1.01588
2113.88	0.762559
2115.33	1.19049
2116.78	0.752504
2118.23	0.813859
2119.68	0.975817
2121.13	0.691281
2122.59	1.0885
2124.04	1.30435
2125.49	1.28856
2126.94	1.32227
2128.39	1.28877
2129.83	1.17125
2131.28	1.01961
2132.73	0.602654
2134.18	0.947131
2135.63	1.30844
2137.08	0.811234
2138.53	1.52218
2139.97	1.50753
2141.42	1.44471
2142.87	1.0356
2144.31	1.52006
2145.76	1.82297
2147.21	1.84438
2148.65	1.71616
2150.1	1.71962
2151.54	1.24169
2152.99	1.59133
2154.43	2.1722
2155.88	1.72543
2157.32	1.94143
2158.77	1.99242
2160.21	2.09434
2161.65	2.29736
2163.1	1.85565
2164.54	2.59273
2165.98	2.05322
2167.43	1.79525
2168.87	2.06797
2170.31	1.99008
2171.75	1.92685
2173.19	1.89514
2174.64	1.82895
2176.07	2.06163
2177.52	2.0949
2178.96	2.36163
2180.4	1.8811
2181.84	2.11628
2183.28	1.91967
2184.72	2.30539
2186.15	2.37524
2187.59	1.8794
2189.03	1.66632
2190.47	2.0191
2191.91	2.10538
2193.35	1.70814
2194.78	1.95901
2196.22	1.62558
2197.66	2.00605
2199.09	1.71948
2200.53	1.96405
2201.97	1.7101
2203.4	1.73915
2204.84	1.27172
2206.27	1.60114
2207.71	1.51658
2209.14	1.36566
2210.58	1.14802
2212.01	1.26058
2213.45	1.52114
2214.88	1.59954
2216.31	1.05116
2217.75	0.735327
2219.18	1.09689
2220.61	1.29406
2222.05	1.07917
2223.48	0.847345
2224.91	1.20737
2226.34	1.15414
2227.78	1.0174
2229.21	0.945554
2230.64	1.18492
2232.07	0.768144
2233.5	0.859941
2234.93	0.903102
2236.36	0.816474
2237.79	0.910846
2239.22	1.1372
2240.65	0.598426
2242.08	0.66475
2243.5	0.503695
2244.93	0.440755
2246.36	0.573015
2247.79	0.655067
2249.22	0.637537
2250.64	0.911492
2252.07	0.565084
2253.5	0.365016
2254.92	0.620472
2256.35	0.519521
2257.78	0.339433
2259.2	0.453671
2260.63	0.829784
2262.05	0.428935
2263.48	0.20756
2264.9	0.3274
2266.33	0.609704
2267.75	0.631364
2269.18	0.408188
2270.6	0.167982
2272.02	0.49718
2273.45	0.386665
2274.87	0.37391
2276.29	0.361315
2277.71	0.430339
2279.14	0.222301
2280.56	0.340247
2281.98	0.458158
2283.4	0.706581
2284.82	0.416639
2286.24	0.143048
2287.66	0.0818424
2289.08	0.363935
2290.5	0.56485
2291.92	0.128602
2293.34	0.264479
2294.76	0.351368
2296.18	0.438269
2297.6	0.214062
2299.02	0.0716209
2300.44	0.175048
2301.86	0.295187
2303.27	0.317223
2304.69	0.306571
2306.11	0.164456
2307.53	0.679194
2308.94	0.273412
2310.36	0.343745
2311.78	-0.14545
2313.19	0.319386
2314.61	0.241667
2316.02	0.0821128
2317.44	0.0877399
2318.85	0.308002
2320.27	0.115963
2321.68	0.26942
2323.1	0.107948
2324.51	0.291286
2325.92	0.10989
2327.34	0.537531
2328.75	0.469733
2330.16	0.748071
2331.58	0.730524
2332.99	0.170792
2334.4	0.220811
2335.81	-0.0909281
2337.23	0.254984
2338.64	0.271129
2340.05	0.12207
2341.46	0.23522
2342.87	0.150926
2344.28	0.0339355
2345.69	-0.0499153
2347.1	-0.0515556
2348.51	0.028666
2349.92	-0.0877986
2351.33	-0.00851822
2352.74	0.0209146
2354.15	0.180134
2355.55	0.0451369
2356.96	-0.0409641
2358.37	0.230908
2359.78	-0.0013504
2361.19	0.0753179
2362.59	0.103179
2364	-0.17681
2365.41	0.0614491
2366.81	0.137745
2368.22	0.0851936
2369.62	0.162559
2371.03	-0.178293
2372.44	-0.131115
2373.84	-0.163781
2375.24	-0.180061
2376.65	0.237787
2378.05	0.268467
2379.46	-0.0876961
2380.86	0.165516
2382.26	0.128541
2383.67	-0.0051012
2385.07	-0.138567
2386.47	-0.103668
2387.88	-0.0681829
2389.28	-0.0876989
2390.68	0.148621
2392.08	-0.299082
2393.48	-0.315939
2394.89	0.0813026
2396.29	-0.0776892
2397.69	-0.0612898
2399.09	0.0508523
2400.49	0.226857
2401.89	0.037714
2403.29	0.102756
2404.69	-0.0706787
2406.09	0.0251827
2407.48	0.0726976
2408.88	0.18303
2410.28	0.293014
2411.68	0.371382
2413.08	-0.325659
2414.48	0.356063
2415.87	0.0571733
2417.27	0.471697
2418.67	0.000298023
2420.06	-0.011734
2421.46	0.372151
2422.86	0.169703
2424.25	0.141293
2425.65	0.176313
2427.04	0.0373993
2428.44	-0.0533719
2429.83	0.252977
2431.23	0.274495
2432.62	0.693022
2434.02	0.301507
2435.41	0.448988
2436.81	0.245829
2438.2	0.279812
2439.59	0.0110049
2440.99	0.0910306
2442.38	-0.575467
2443.77	0.0119066
2445.16	0.329035
2446.56	0.122588
2447.95	0.217319
2449.34	-0.115719
2450.73	-0.0366373
2452.12	0.0744309
2453.51	-0.0988073
2454.9	0.361457
2456.29	0.205199
2457.68	0.286462
2459.07	0.114519
2460.46	0.479866
2461.85	0.132967
2463.24	0.228226
2464.63	0.30718
2466.02	0.306886
2467.4	0.322309
2468.79	-0.0725498
2470.18	0.100545
2471.57	0.225839
2472.95	0.161441
2474.34	0.316936
2475.73	-0.283304
2477.12	-0.159877
2478.5	0.0889521
2479.89	0.180592
2481.27	-0.104087
2482.66	-0.090704
2484.04	0.235391
2485.43	0.200535
2486.81	0.00867367
2488.2	0.112918
2489.58	0.107278
2490.97	0.381696
2492.35	-0.230171
2493.73	0.014123
2495.12	0.382991
2496.5	0.349193
2497.88	0.0992522
2499.27	0.422529
2500.65	0.219208
2502.03	-0.27803
2503.41	-0.0339622
2504.79	0.208984
2506.17	0.127403
2507.56	0.0150509
2508.94	0.026032
2510.32	0.313726
2511.7	0.110401
2513.08	0.245245
2514.46	-0.201493
2515.84	-0.0500464
2517.22	0.361802
2518.59	-0.128416
2519.97	0.237706
2521.35	0.160336
2522.73	0.418344
2524.11	0.263553
2525.49	-0.0439382
2526.86	-0.18361
2528.24	0.103269
2529.62	-0.0960178
2530.99	-0.00517988
2532.37	-0.141106
2533.75	-0.0785203
2535.12	-0.0458326
2536.5	-0.0587683
2537.88	-0.269669
2539.25	0.338946
2540.63	0.0660229
2542	0.187633
2543.38	-0.145784
2544.75	0.0828338
2546.12	0.190951
2547.5	0.31514
2548.87	0.227587
2550.24	0.170384
2551.62	0.0369148
2552.99	0.19111
2554.36	0.0410314
2555.74	-0.0641298
2557.11	0.30056
2558.48	-0.0173812
2559.85	0.332048
2561.22	0.136105
2562.59	0.0316153
2563.96	-0.0118251
2565.34	-0.0701132
2566.71	0.432483
2568.08	0.192583
2569.45	0.422498
2570.82	0.0764799
2572.18	0.109391
2573.55	0.12721
2574.92	0.175414
2576.29	0.269134
2577.66	0.15053
2579.03	0.365332
2580.4	0.00367212
2581.77	0.308885
2583.13	0.356034
2584.5	-0.0517931
2585.87	0.146753
2587.23	-0.0184102
2588.6	0.286405
2589.97	-0.0452342
2591.33	0.365592
2592.7	0.215363
2594.06	0.0494347
2595.43	0.185718
2596.79	0.0940909
2598.16	0.334789
2599.52	0.106263
2600.89	0.406929
2602.25	0.118677
2603.62	0.0425234
2604.98	0.0271854
2606.34	0.389092
2607.71	0.237804
2609.07	0.086009
2610.43	-0.0514388
2611.79	0.0210643
2613.16	0.0174351
2614.52	-0.0918837
2615.88	0.203981
2617.24	0.0347381
2618.6	0.150802
2619.96	-0.0170789
2621.32	0.144775
2622.68	0.0378213
2624.04	0.0804877
2625.4	0.167816
2626.76	-0.0284877
2628.12	-0.0161409
2629.48	0.204418
2630.84	0.231073
2632.2	0.198138
2633.56	-0.220976
2634.92	0.206533
2636.28	0.129121
2637.63	0.170362
2638.99	0.0487103
2640.35	0.0900989
2641.71	0.442056
2643.06	0.365303
2644.42	-0.198381
2645.77	0.256548
2647.13	0.106122
2648.49	0.176357
2649.84	0.231151
2651.2	0.00602388
2652.55	0.133585
2653.91	0.0116596
2655.26	-0.12415
2656.62	0.326862
2657.97	0.17801
2659.33	0.220145
2660.68	0.277145
2662.03	0.0855279
2663.39	-0.0479021
2664.74	0.00799942
2666.09	0.019526
2667.44	0.118134
2668.8	0.158277
2670.15	0.242203
2671.5	0.340931
2672.85	0.0331659
2674.2	0.089252
2675.55	0.000545502
2676.91	0.129946
2678.26	-0.0593481
2679.61	0.259548
2680.96	0.405128
2682.31	0.305124
2683.66	0.220481
2685	-0.0955882
2686.35	0.0817924
2687.7	0.389771
2689.05	0.319547
2690.4	0.277083
2691.75	0.218764
2693.1	0.304447
2694.44	0.287837
2695.79	0.0537405
2697.14	0.00863695
2698.49	0.340994
2699.83	-0.0205507
2701.18	0.314213
2702.52	0.0708022
2703.87	0.175742
2705.22	-0.00882339
2706.56	0.0965605
2707.91	0.463042
2709.25	0.292389
2710.6	0.106802
2711.94	0.269536
2713.29	0.330542
2714.63	0.0426745
2715.97	0.248943
2717.32	0.120698
2718.66	0.341347
2720.01	0.198038
2721.35	0.11255
2722.69	0.317785
2724.03	0.100578
2725.38	0.348823
2726.72	0.262004
2728.06	0.0876341
2729.4	0.24782
2730.74	0.014998
2732.08	0.305954
2733.42	0.320508
2734.76	0.277
2736.1	0.42272
2737.44	0.43762
2738.78	0.336145
2740.12	0.365365
2741.46	0.205194
2742.8	0.0591354
2744.14	0.174234
2745.48	0.57935
2746.82	0.0399289
2748.16	0.371729
2749.49	0.13743
2750.83	0.121007
2752.17	0.162762
2753.51	0.146677
2754.84	0.232135
2756.18	0.259696
2757.52	0.374234
2758.85	0.358618
2760.19	0.053833
2761.53	-0.395216
2762.86	0.357125
2764.2	-0.337314
2765.53	0.198097
2766.87	0.458207
2768.2	0.196817
2769.54	0.180423
2770.87	-0.0104303
2772.2	-0.115371
2773.54	0.1687
2774.87	0.0338311
2776.2	0.0432053
2777.54	0.182338
2778.87	-0.0522456
2780.2	0.0731215
2781.53	0.356496
2782.87	-0.00623465
2784.2	-0.0243468
2785.53	0.0721946
2786.86	0.0255222
2788.19	-0.135253
2789.52	0.0194426
2790.85	-0.240126
2792.18	-0.0128713
2793.51	-0.0999126
2794.84	-0.0296922
2796.17	0.140262
2797.5	0.181158
2798.83	0.0502744
2800.16	0.133262
2801.49	0.116117
2802.82	-0.0437403
2804.15	-0.0326281
2805.47	-0.021853
2806.8	-0.310419
2808.13	-0.243461
2809.46	0.0504928
2810.78	0.0316033
2812.11	-0.0293956
2813.44	0.151592
2814.76	0.0215535
2816.09	0.0910506
2817.42	0.0479283
2818.74	0.0335541
2820.07	-0.0800467
2821.39	0.0894885
2822.72	0.0459404
2824.04	0.426993
2825.37	0.127722
2826.69	-0.058085
2828.02	0.138815
2829.34	0.307745
2830.66	0.420358
2831.99	0.179221
2833.31	0.334382
2834.63	0.262816
2835.96	0.190898
2837.28	0.288402
2838.6	0.328959
2839.92	0.539042
2841.24	0.508747
2842.57	0.676659
2843.89	0.915655
2845.21	1.16929
2846.53	0.759159
2847.85	1.33858
2849.17	1.07002
2850.49	1.31004
2851.81	1.66274
2853.13	1.57685
2854.45	1.56133
2855.77	1.50327
2857.09	1.57236
2858.41	1.00585
2859.72	1.34332
2861.04	1.7229
2862.36	1.69269
2863.68	1.71864
2865	1.51861
2866.31	2.24968
2867.63	2.33185
2868.95	2.37204
2870.26	2.7086
2871.58	2.84784
2872.9	2.78947
2874.21	2.73049
2875.53	2.8115
2876.84	2.8352
2878.16	2.71748
2879.47	2.79656
2880.79	2.98825
2882.1	3.03996
2883.42	2.81163
2884.73	2.64038
2886.05	2.75043
2887.36	2.56575
2888.67	2.77365
2889.99	3.05093
2891.3	3.06087
2892.61	3.11235
2893.92	3.06557
2895.24	2.89314
2896.55	3.05743
2897.86	2.95662
2899.17	3.19246
2900.48	3.09313
2901.79	3.12008
2903.11	3.42694
2904.42	3.31427
2905.73	3.17385
2907.04	3.62136
2908.35	3.80382
2909.66	4.2249
2910.97	3.96089
2912.27	4.13065
2913.58	4.43981
2914.89	4.57976
2916.2	4.39618
2917.51	4.49122
2918.82	4.72526
2920.13	4.65132
2921.43	5.30508
2922.74	5.56825
2924.05	5.27353
2925.35	5.2035
2926.66	5.53938
2927.97	5.73553
2929.27	6.05713
2930.58	5.76308
2931.89	5.70625
2933.19	6.1524
2934.5	5.67598
2935.8	6.01032
2937.11	5.67398
2938.41	6.34396
2939.72	5.65872
2941.02	5.54689
2942.32	5.65942
2943.63	5.20006
2944.93	5.31492
2946.24	4.98337
2947.54	4.87594
2948.84	4.51624
2950.14	4.18328
2951.45	4.31076
2952.75	4.3246
2954.05	4.11323
2955.35	4.22357
2956.65	4.37666
2957.95	3.92965
2959.26	3.84883
2960.56	3.81229
2961.86	3.63722
2963.16	3.67294
2964.46	3.51164
2965.76	3.46134
2967.06	3.11447
2968.36	3.25834
2969.66	3.5001
2970.96	3.123
2972.25	3.29465
2973.55	2.81932
2974.85	2.73784
2976.15	2.92331
2977.45	3.23449
2978.74	2.75572
2980.04	2.90911
2981.34	2.34368
2982.64	2.29866
2983.93	2.07119
2985.23	2.168
2986.52	1.94277
2987.82	2.0419
2989.12	1.70619
2990.41	1.82034
2991.71	1.40003
2993	1.69567
2994.3	1.653
2995.59	1.55327
2996.89	1.25649
2998.18	1.12821
2999.48	1.05633
3000.77	0.928827
3002.06	1.18029
3003.36	1.30581
3004.65	0.899005
3005.94	0.800321
3007.23	0.617251
3008.53	0.657575
3009.82	0.711166
3011.11	0.526594
3012.4	0.188414
3013.69	0.548269
3014.99	0.475757
3016.28	0.278499
3017.57	0.207325
3018.86	0.234
3020.15	0.246786
3021.44	0.342612
3022.73	0.159914
3024.02	0.295949
3025.31	0.445051
3026.6	0.261313
3027.89	0.119806
3029.18	0.117615
3030.46	0.0612516
3031.75	0.0888734
3033.04	0.213861
3034.33	0.228583
3035.62	0.532568
3036.9	0.256187
3038.19	-0.0624633
3039.48	0.361232
3040.76	0.274262
3042.05	0.131944
3043.34	0.250406
3044.62	0.232335
3045.91	0.40696
3047.19	0.487308
3048.48	0.378234
3049.77	0.352776
3051.05	0.301235
3052.34	0.291256
3053.62	0.281286
3054.9	0.434532
3056.19	0.450537
3057.47	0.561116
3058.76	0.275883
3060.04	0.385653
3061.32	0.794959
3062.61	0.442973
3063.89	0.16033
3065.17	0.123674
3066.45	0.319171
3067.74	0.365887
3069.02	0.127336
3070.3	0.269353
3071.58	0.247536
3072.86	0.102437
3074.14	0.119639
3075.42	0.122581
3076.7	0.111728
3077.99	0.00620556
3079.26	-0.125555
3080.54	0.0694098
3081.82	0.42827
3083.1	-0.0122795
3084.38	0.212432
3085.66	-0.0648689
3086.94	0.0239258
3088.22	-0.0642257
3089.5	0.15931
3090.78	0.0839386
3092.05	-0.0864463
3093.33	0.0960283
3094.61	0.170185
3095.89	0.122513
3097.16	-0.223289
3098.44	0.0544715
3099.72	-0.128664
3100.99	-0.122092
3102.27	-0.0206537
3103.54	0.189266
3104.82	-0.0336337
3106.1	0.285449
3107.37	-0.00377369
3108.65	-0.116281
3109.92	0.0156255
3111.2	0.134801
3112.47	-0.0162725
3113.74	-0.194226
3115.02	-0.00628185
3116.29	-0.0897365
3117.56	0.0296292
3118.84	-0.0144992
3120.11	-0.113629
3121.38	0.179826
3122.66	0.0525594
3123.93	0.182681
3125.2	0.136842
3126.47	0.104947
3127.74	0.181758
3129.01	0.218351
3130.29	0.26875
3131.56	-0.0727515
3132.83	0.288525
3134.1	0.149533
3135.37	-0.0301576
3136.64	0.127266
3137.91	0.284143
3139.18	0.225008
3140.45	0.125524
3141.72	0.0397496
3142.99	0.451495
3144.26	0.111185
3145.52	-4.86374e-005
3146.79	0.304955
3148.06	0.449342
3149.33	0.272711
