200.523	0.623674
202.339	0.627041
204.154	0.63182
205.967	0.807923
207.781	0.59539
209.596	0.0183477
211.409	0.412679
213.222	0.417335
215.034	0.251513
216.848	0.134166
218.659	0.69539
220.47	0.11911
222.281	-0.0926332
224.091	0.349563
225.903	-0.319582
227.713	-0.0216694
229.522	0.0585747
231.331	-0.102852
233.14	0.531895
234.948	-0.424828
236.756	0.283623
238.566	0.00559616
240.373	-0.197846
242.18	-0.158229
243.986	0.365165
245.792	-0.124534
247.598	-0.0121527
249.403	0.339681
251.208	0.181991
253.013	-0.00190639
254.818	0.295533
256.624	0.254983
258.427	0.335852
260.231	0.129176
262.034	-0.29243
263.836	0.0343027
265.638	-0.0474672
267.44	0.425473
269.242	0.127104
271.043	0.0691757
272.844	0.347953
274.645	-0.194079
276.445	0.299327
278.245	0.116293
280.044	0.389441
281.843	-0.205842
283.642	0.0881329
285.44	0.164272
287.238	-0.0482674
289.036	-0.0204868
290.833	0.487074
292.63	0.372762
294.425	-0.242211
296.221	0.0294313
298.017	0.493059
299.813	-0.333227
301.608	-0.227566
303.403	-0.289708
305.198	0.100697
306.992	-0.392452
308.786	0.640449
310.579	0.243369
312.371	0.443184
314.163	0.120615
315.956	0.252222
317.748	0.314066
319.54	0.520323
321.331	0.82322
323.122	0.101783
324.911	0.143543
326.701	0.137799
328.491	-0.0114336
330.281	0.197262
332.071	0.333473
333.857	0.20516
335.646	-0.283916
337.434	-0.4877
339.222	0.64665
341.008	0.344136
342.795	0.0651503
344.582	0.622706
346.369	0.416053
348.153	0.711642
349.939	0.0288572
351.724	0.396607
353.51	0.167209
355.292	0.104053
357.077	0.779007
358.861	0.284479
360.643	0.24206
362.426	0.24655
364.21	-0.129997
365.99	0.0874252
367.773	0.446241
369.555	0.210888
371.335	-0.285218
373.116	0.189218
374.897	0.260575
376.676	0.379087
378.456	0.568599
380.236	0.193251
382.014	-0.156831
383.793	0.200347
385.57	0.229131
387.349	-0.304948
389.127	0.172398
390.903	0.321577
392.681	0.447996
394.456	0.222711
396.233	-0.448427
398.007	-0.46193
399.784	0.0176945
401.56	0.0742264
403.333	0.200694
405.108	0.396998
406.881	0.287354
408.656	-0.339248
410.428	0.0904264
412.202	-0.0667095
413.973	0.503988
415.746	0.230561
417.517	0.239421
419.29	-0.0562077
421.06	-0.187414
422.831	0.174112
424.601	-0.00482941
426.37	0.355413
428.141	0.362809
429.909	0.557581
431.679	0.447215
433.447	0.0555258
435.216	0.0396729
436.983	-0.0466118
438.75	-0.203885
440.519	0.717064
442.285	-0.0531359
444.052	0.6759
445.818	0.301353
447.583	0.417879
449.349	0.183073
451.114	-0.354924
452.878	-0.471563
454.643	0.205194
456.407	-0.00475979
458.169	0.251251
459.934	0.274242
461.696	0.321068
463.458	0.253001
465.222	0.210304
466.983	-0.132025
468.744	-0.146876
470.507	0.467694
472.267	0.594781
474.027	0.0926962
475.787	-0.178417
477.548	0.294011
479.307	0.671742
481.065	0.140181
482.823	0.470589
484.583	0.1033
486.341	0.73929
488.098	0.118998
489.855	1.03913
491.612	0.117436
493.37	0.526537
495.126	0.188141
496.881	0.246982
498.636	0.258809
500.391	0.0591869
502.148	0.421991
503.902	0.54968
505.656	0.817552
507.409	0.520087
509.162	0.338629
510.915	0.226273
512.668	0.559631
514.42	0.421075
516.174	0.563663
517.925	0.940279
519.676	0.751529
521.427	0.233333
523.178	0.161429
524.928	0.605767
526.678	0.416237
528.427	0.297251
530.176	0.0845461
531.925	0.105919
533.673	0.711734
535.422	0.0292711
537.169	0.141273
538.917	0.111812
540.664	0.73436
542.411	0.912222
544.157	0.368155
545.903	0.545655
547.649	0.838915
549.395	-0.0968704
551.14	0.289451
552.884	0.143081
554.629	0.413067
556.373	0.705799
558.117	0.352627
559.86	-0.022501
561.603	0.432149
563.346	0.196523
565.089	-0.107224
566.831	0.0723114
568.573	0.22933
570.314	0.547716
572.053	0.408256
573.794	-0.00501251
575.534	-0.118609
577.274	-0.00144672
579.014	0.116853
580.754	0.373674
582.493	0.217176
584.23	0.634799
585.968	-0.0980854
587.706	0.501794
589.444	0.249565
591.181	0.341618
592.919	0.0650911
594.653	-0.11954
596.39	0.0639601
598.126	-0.28175
599.862	-0.259659
601.595	-0.10024
603.33	0.242056
605.065	0.330014
606.8	0.0950928
608.532	-0.369876
610.266	0.26717
611.999	0.422203
613.732	0.187989
615.463	0.367049
617.196	0.866838
618.928	0.174895
620.66	0.489796
622.389	0.528753
624.12	-0.141726
625.851	0.239505
627.58	0.0275803
629.31	0.410792
631.04	0.248181
632.767	0.680576
634.497	0.52056
636.223	0.405817
637.952	0.152588
639.68	0.718712
641.406	0.82557
643.134	0.65663
644.861	0.441363
646.586	0.431501
648.312	0.264147
650.037	0.372267
651.762	0.233633
653.486	-0.17462
655.211	-0.216771
656.936	0.812991
658.659	1.09341
660.383	0.826348
662.105	1.26533
663.829	0.674405
665.55	0.35508
667.273	0.834314
668.994	0.421089
670.716	0.328614
672.436	0.191907
674.158	0.331843
675.877	-0.259769
677.598	0.800482
679.317	0.69157
681.035	0.67352
682.755	0.699884
684.473	0.425162
686.192	0.516942
687.909	0.90685
689.628	1.22679
691.344	0.785927
693.06	0.666979
694.778	1.00801
696.493	0.93354
698.211	1.11125
699.925	0.80447
701.64	0.680952
703.356	0.993402
705.07	0.845473
706.783	0.880877
708.498	0.915825
710.211	0.835813
711.924	1.0532
713.638	1.29277
715.35	1.14325
717.061	1.06243
718.774	0.799329
720.485	0.650785
722.196	1.459
723.906	0.673239
725.618	0.979829
727.328	0.785956
729.037	1.56777
730.746	0.987524
732.456	1.49509
734.165	1.00601
735.873	1.4446
737.58	0.91173
739.289	0.98951
740.997	1.49628
742.703	1.59793
744.41	1.25044
746.116	1.53462
747.823	1.30242
749.529	1.31894
751.234	1.0442
752.938	1.51285
754.643	1.75789
756.347	1.93691
758.051	1.44203
759.756	1.69139
761.459	1.26569
763.162	1.4039
764.865	1.63236
766.567	1.00148
768.269	1.15952
769.97	1.42886
771.671	1.35728
773.372	1.35229
775.073	1.07558
776.773	2.04292
778.473	1.72262
780.174	1.1548
781.874	1.92242
783.573	1.62695
785.271	1.87355
786.97	2.0954
788.668	2.1332
790.365	1.42149
792.063	1.49939
793.76	2.07248
795.456	1.96753
797.153	1.796
798.847	1.55868
800.543	1.66086
802.238	1.40421
803.933	1.44068
805.628	1.994
807.322	1.80458
809.017	2.13076
810.71	1.84953
812.404	2.01633
814.097	1.98068
815.79	1.60906
817.483	2.1327
819.173	1.91803
820.865	2.26209
822.556	2.53901
824.248	2.1697
825.939	1.9359
827.629	1.57064
829.318	1.34163
831.008	1.1375
832.697	1.89368
834.387	1.82763
836.076	1.87391
837.765	1.83076
839.451	1.7195
841.139	1.94178
842.827	1.96188
844.514	1.64637
846.2	1.91248
847.886	1.21888
849.573	1.60064
851.259	1.04464
852.943	1.60999
854.629	1.45924
856.314	1.60003
857.997	1.04305
859.682	1.22626
861.366	1.43069
863.05	1.65645
864.732	1.34035
866.415	1.69955
868.098	1.04363
869.779	1.62749
871.461	1.30896
873.141	1.32857
874.823	1.32554
876.505	1.63845
878.184	1.22921
879.865	1.18093
881.545	1.20003
883.223	1.42167
884.903	1.46172
886.581	1.63591
888.26	1.13172
889.937	0.874627
891.616	1.49545
893.294	0.920704
894.97	1.08838
896.648	0.715309
898.323	1.06072
900	0.911083
901.675	1.38841
903.351	0.901906
905.026	1.04219
906.701	1.11536
908.375	1.43413
910.05	1.26304
911.723	0.981889
913.398	0.857435
915.07	1.24419
916.742	0.920418
918.415	0.929597
920.087	1.95733
921.76	1.10344
923.43	1.46768
925.103	1.32482
926.773	1.53703
928.443	1.06637
930.114	1.28111
931.783	0.790339
933.454	1.18234
935.123	0.824449
936.791	0.709615
938.461	0.948397
940.128	0.217772
941.796	0.348275
943.464	1.05314
945.131	1.25055
946.797	0.519878
948.465	0.538101
950.131	0.620948
951.797	0.239452
953.462	0.762513
955.128	0.955907
956.793	1.17376
958.457	0.600422
960.121	1.33119
961.786	1.11446
963.45	0.322522
965.113	0.36864
966.775	0.722332
968.44	0.786132
970.102	0.449925
971.763	0.688212
973.425	0.772025
975.086	0.215786
976.748	0.611983
978.409	0.235323
980.069	0.62242
981.729	1.00938
983.388	1.05215
985.048	1.27029
986.708	0.778241
988.367	0.506191
990.025	0.808257
991.683	0.888447
993.341	0.34998
994.998	0.673095
996.655	0.620899
998.312	0.656928
999.969	1.17748
1001.62	1.47682
1003.28	1.26922
1004.94	0.797729
1006.59	1.00801
1008.25	0.888721
1009.9	0.660176
1011.56	0.673538
1013.21	0.81877
1014.86	0.219477
1016.52	0.868979
1018.17	0.468023
1019.82	0.4618
1021.48	0.696962
1023.13	0.823663
1024.78	0.79818
1026.43	0.467278
1028.08	0.857484
1029.73	0.526102
1031.38	0.477736
1033.03	0.428043
1034.68	1.14059
1036.33	0.6083
1037.98	0.010766
1039.63	0.263024
1041.28	1.05922
1042.93	1.00779
1044.57	0.501747
1046.22	0.779674
1047.87	0.820259
1049.52	0.319346
1051.16	0.536195
1052.81	0.232408
1054.45	0.450315
1056.1	0.103211
1057.75	0.320946
1059.39	0.690541
1061.04	1.01617
1062.68	0.884499
1064.32	0.121457
1065.97	0.401225
1067.61	0.201814
1069.25	0.349334
1070.9	0.583055
1072.54	0.273821
1074.18	0.225643
1075.82	-0.0168371
1077.47	0.414172
1079.11	0.32569
1080.75	-0.0440454
1082.39	0.0198917
1084.03	0.668494
1085.67	0.470062
1087.31	0.378354
1088.95	0.393244
1090.59	0.709519
1092.22	-0.164619
1093.86	0.258157
1095.5	0.723462
1097.14	0.132435
1098.78	0.189694
1100.41	0.463636
1102.05	0.394665
1103.69	0.520878
1105.32	0.712704
1106.96	0.625381
1108.59	1.07542
1110.23	0.341776
1111.86	0.767802
1113.5	0.289812
1115.13	0.28361
1116.77	0.29837
1118.4	0.849155
1120.03	0.628592
1121.67	0.451999
1123.3	0.768765
1124.93	-0.176123
1126.56	0.505838
1128.19	0.568011
1129.83	1.01565
1131.46	1.1644
1133.09	0.86447
1134.72	0.457584
1136.35	1.20434
1137.98	0.966929
1139.61	0.109153
1141.24	0.574901
1142.86	0.29293
1144.49	0.544559
1146.12	0.498122
1147.75	0.431259
1149.38	0.258673
1151	0.0439844
1152.63	0.446941
1154.26	0.508769
1155.88	0.229696
1157.51	0.567691
1159.14	-0.13637
1160.76	0.245134
1162.39	0.244757
1164.01	-0.201253
1165.63	-0.391712
1167.26	0.268083
1168.88	-0.0298004
1170.51	0.669942
1172.13	-0.0134134
1173.75	0.321564
1175.38	0.27317
1177	0.627182
1178.62	0.13358
1180.24	0.0434694
1181.86	-0.151523
1183.48	0.309636
1185.1	0.368826
1186.72	-0.248566
1188.34	0.0197191
1189.96	-0.198878
1191.58	0.0445814
1193.2	-0.0501957
1194.82	-0.0613995
1196.44	0.032299
1198.06	0.440596
1199.68	-0.0707312
1201.29	0.0477791
1202.91	0.377129
1204.53	0.332709
1206.14	0.728313
1207.76	0.812011
1209.38	0.395286
1210.99	0.290803
1212.61	0.831206
1214.22	0.473124
1215.84	1.0505
1217.45	0.938788
1219.07	0.847176
1220.68	0.880213
1222.29	1.453
1223.91	0.534146
1225.52	0.591193
1227.13	1.04266
1228.74	0.646947
1230.36	0.934968
1231.97	0.831177
1233.58	0.87319
1235.19	1.47435
1236.8	0.733181
1238.41	1.25379
1240.02	0.968782
1241.63	0.787213
1243.24	1.18454
1244.85	0.546703
1246.46	1.33568
1248.07	1.21327
1249.67	0.883305
1251.28	0.94621
1252.89	1.42301
1254.5	1.01102
1256.1	0.827559
1257.71	0.872723
1259.32	1.27072
1260.92	1.00737
1262.53	0.827084
1264.13	1.49602
1265.74	1.0253
1267.34	0.636541
1268.95	1.80172
1270.55	1.36968
1272.15	1.93186
1273.76	0.93808
1275.36	1.18738
1276.97	1.37355
1278.57	1.24813
1280.17	1.7227
1281.77	1.41014
1283.37	1.71857
1284.97	1.53099
1286.58	1.59247
1288.18	0.952184
1289.78	0.891566
1291.38	1.32733
1292.98	1.49431
1294.58	1.70186
1296.18	1.7222
1297.78	1.65843
1299.37	1.65504
1300.97	1.25853
1302.57	1.82963
1304.17	1.84316
1305.77	1.11589
1307.36	1.45755
1308.96	1.36742
1310.55	1.68734
1312.15	1.39283
1313.75	1.09961
1315.34	1.70689
1316.94	1.59947
1318.53	1.77835
1320.13	1.75297
1321.72	1.25827
1323.32	1.78049
1324.91	2.40155
1326.5	1.59877
1328.1	1.5882
1329.69	1.09229
1331.28	1.46863
1332.87	1.26033
1334.47	1.76108
1336.06	1.1529
1337.65	1.77609
1339.24	1.65216
1340.83	1.86919
1342.42	1.56064
1344.01	1.95433
1345.6	1.60331
1347.19	1.49393
1348.78	0.965785
1350.37	1.18128
1351.96	0.738749
1353.54	1.03816
1355.13	2.17797
1356.72	1.57908
1358.31	0.960143
1359.89	1.61874
1361.48	1.59717
1363.07	1.63468
1364.65	1.15351
1366.24	1.50994
1367.82	1.0702
1369.41	1.34858
1370.99	1.07086
1372.58	1.61033
1374.16	1.13598
1375.75	1.15969
1377.33	1.38247
1378.91	0.928221
1380.5	1.60722
1382.08	1.01166
1383.66	0.673787
1385.25	0.852116
1386.83	1.30802
1388.41	1.96222
1389.99	1.36601
1391.57	1.32667
1393.15	1.46662
1394.73	0.873027
1396.31	0.775238
1397.89	1.35084
1399.47	0.855117
1401.05	1.13138
1402.63	0.733854
1404.21	1.16763
1405.78	0.652335
1407.36	0.810254
1408.94	1.22566
1410.52	1.36472
1412.1	0.970503
1413.67	1.48401
1415.25	1.06892
1416.82	0.791513
1418.4	0.947683
1419.98	1.34038
1421.55	1.16269
1423.13	1.32121
1424.7	1.38276
1426.28	1.30768
1427.85	0.839426
1429.42	0.90233
1431	1.35806
1432.57	1.47809
1434.14	1.67588
1435.71	1.28315
1437.29	1.32338
1438.86	1.73775
1440.43	1.36677
1442	1.64527
1443.57	1.29551
1445.14	2.08602
1446.71	1.52056
1448.28	2.15426
1449.85	1.84471
1451.42	1.94844
1452.99	1.79704
1454.56	1.48856
1456.13	1.37663
1457.7	1.16567
1459.26	1.34713
1460.83	2.03866
1462.4	1.41002
1463.97	1.60624
1465.54	1.03477
1467.1	1.62257
1468.67	1.05174
1470.23	1.26722
1471.8	0.855798
1473.36	0.896625
1474.93	0.683191
1476.49	0.725061
1478.06	1.11989
1479.62	1.33814
1481.19	0.654675
1482.75	0.872765
1484.31	1.40416
1485.88	1.09266
1487.44	0.70226
1489	0.78079
1490.56	0.77935
1492.13	0.951932
1493.69	0.692585
1495.25	0.393216
1496.81	1.06784
1498.37	0.845463
1499.93	0.857361
1501.49	0.287835
1503.05	0.573776
1504.61	0.472433
1506.17	0.681187
1507.73	-0.000555992
1509.28	0.400004
1510.84	0.586434
1512.4	0.28991
1513.96	0.128542
1515.52	0.717347
1517.07	0.556533
1518.63	0.3776
1520.19	0.0463419
1521.74	0.481305
1523.3	0.284308
1524.85	0.468883
1526.41	0.385214
1527.96	0.110572
1529.52	0.615777
1531.07	0.398069
1532.63	0.44686
1534.18	0.704584
1535.73	1.03824
1537.29	0.427358
1538.84	1.17726
1540.39	1.02095
1541.94	0.82735
1543.5	1.14214
1545.05	1.30572
1546.6	0.7363
1548.15	1.49999
1549.7	1.45614
1551.25	1.33767
1552.8	1.1638
1554.35	1.51443
1555.9	1.54834
1557.45	1.13592
1559	1.08018
1560.55	0.914249
1562.1	1.57057
1563.65	1.59367
1565.19	1.7106
1566.74	1.71566
1568.29	1.44053
1569.83	1.57563
1571.38	1.69172
1572.93	1.63953
1574.47	1.97923
1576.02	1.27356
1577.56	1.18411
1579.11	1.69246
1580.66	1.90275
1582.2	1.81504
1583.74	1.80282
1585.29	1.92212
1586.83	2.30372
1588.38	2.06852
1589.92	1.57093
1591.46	1.82131
1593.01	1.15387
1594.55	1.21626
1596.09	1.82209
1597.63	1.66024
1599.17	1.2364
1600.71	1.46937
1602.25	1.90945
1603.79	2.31238
1605.34	1.51263
1606.88	1.61306
1608.41	1.54254
1609.95	1.20678
1611.49	1.58304
1613.03	1.29992
1614.57	1.59774
1616.11	1.55722
1617.65	1.57342
1619.18	1.38462
1620.72	1.53444
1622.26	1.01138
1623.79	1.20059
1625.33	1.40848
1626.87	1.61557
1628.4	1.37234
1629.94	1.25894
1631.48	1.48112
1633.01	1.53458
1634.55	1.51361
1636.08	1.21355
1637.61	1.60461
1639.15	1.13835
1640.68	1.41789
1642.21	1.84567
1643.75	1.32241
1645.28	1.43133
1646.81	1.66944
1648.34	1.2566
1649.88	1.56886
1651.41	1.90016
1652.94	1.10089
1654.47	1.73089
1656	1.45283
1657.53	1.50837
1659.06	1.71131
1660.59	1.45007
1662.12	1.16933
1663.65	1.66434
1665.18	2.08416
1666.71	1.76548
1668.24	1.59582
1669.76	1.48305
1671.29	1.70338
1672.82	1.55618
1674.35	2.03557
1675.87	1.59396
1677.4	1.13346
1678.93	1.48176
1680.45	0.983018
1681.98	1.07216
1683.5	1.06909
1685.03	1.19454
1686.55	1.46685
1688.08	1.17108
1689.6	0.326439
1691.13	0.654638
1692.65	0.927663
1694.17	0.92599
1695.7	0.796187
1697.22	0.61148
1698.74	0.536239
1700.27	0.369465
1701.79	0.439545
1703.31	-0.128798
1704.83	0.486886
1706.35	0.209659
1707.87	0.0599198
1709.39	0.164638
1710.91	0.0151863
1712.43	0.518869
1713.95	0.62327
1715.47	-0.0146346
1716.99	0.433669
1718.51	0.519669
1720.03	0.370718
1721.55	0.366489
1723.07	-0.196122
1724.58	0.467963
1726.1	0.214037
1727.62	-0.110553
1729.13	-0.0922599
1730.65	0.715855
1732.17	0.516763
1733.68	0.127883
1735.2	0.110034
1736.72	0.364336
1738.23	0.729297
1739.74	0.187938
1741.26	0.130676
1742.77	0.18654
1744.29	0.348273
1745.8	-0.00240135
1747.32	0.104056
1748.83	0.198226
1750.34	-0.174399
1751.85	0.317388
1753.37	0.276614
1754.88	0.188053
1756.39	0.239303
1757.9	-0.208411
1759.41	0.26832
1760.92	-0.00189924
1762.44	0.242319
1763.95	0.403402
1765.46	0.375564
1766.96	-0.141613
1768.47	-0.300062
1769.98	-0.0915437
1771.49	-0.137419
1773	-0.142933
1774.51	-0.0505142
1776.02	0.218873
1777.53	-0.157967
1779.03	0.19351
1780.54	0.123398
1782.05	0.117095
1783.55	0.214026
1785.06	0.0737591
1786.57	0.0460277
1788.07	0.206378
1789.58	-0.150033
1791.08	0.131353
1792.59	-0.185684
1794.09	0.164076
1795.6	0.178537
1797.1	-0.112601
1798.61	0.208403
1800.11	0.0567899
1801.61	-0.0645795
1803.12	-0.163028
1804.62	-0.0709972
1806.12	0.107617
1807.62	0.0848064
1809.12	0.358346
1810.63	0.130394
1812.13	0.149312
1813.63	0.0344396
1815.13	0.476961
1816.63	0.070148
1818.13	0.0666103
1819.63	0.27262
1821.13	0.147939
1822.63	0.25998
1824.13	0.138582
1825.63	0.438388
1827.13	-0.0433865
1828.62	-0.0232882
1830.12	0.155264
1831.62	-0.0296197
1833.12	-0.343859
1834.61	-0.341856
1836.11	0.148125
1837.61	0.0138226
1839.1	0.208091
1840.6	0.406849
1842.09	0.216103
1843.59	0.347293
1845.09	0.278455
1846.58	-0.0446577
1848.08	-0.0895486
1849.57	0.122814
1851.06	0.167235
1852.56	0.330187
1854.05	0.480731
1855.54	0.100062
1857.04	-0.0236931
1858.53	0.13003
1860.02	0.106002
1861.51	0.234636
1863.01	-0.00506783
1864.5	-0.0456228
1865.99	-0.0355048
1867.48	-0.0869765
1868.97	-0.0866623
1870.46	0.198928
1871.95	0.017693
1873.44	-0.0284028
1874.93	-0.0273538
1876.42	-0.0111294
1877.91	0.0783811
1879.4	0.0582728
1880.89	-0.148562
1882.37	0.224183
1882.46	0.247805
1883.95	0.525502
1885.45	0.453774
1886.94	-0.036706
1888.43	-0.0571165
1889.93	-0.00778913
1891.42	0.181428
1892.91	0.0763125
1894.41	0.51175
1895.9	0.166182
1897.39	0.0821304
1898.88	0.17194
1900.37	0.208738
1901.86	0.209346
1903.36	-0.208979
1904.85	0.154031
1906.34	-0.352749
1907.83	0.443358
1909.32	-0.166759
1910.81	0.0572577
1912.29	-0.169108
1913.78	-0.0133266
1915.27	0.0904698
1916.76	0.0205827
1918.25	-0.0323992
1919.74	0.0182209
1921.23	-0.0871806
1922.71	0.136805
1924.2	0.240234
1925.69	0.18882
1927.17	0.155655
1928.66	-0.102022
1930.15	0.159734
1931.63	0.0572052
1933.12	0.178567
1934.6	0.315661
1936.09	-0.0332875
1937.57	0.326035
1939.06	0.0796862
1940.54	0.196505
1942.02	0.227613
1943.51	0.173355
1944.99	0.240613
1946.47	0.480572
1947.96	0.082552
1949.44	-0.246895
1950.92	0.11186
1952.4	0.280127
1953.88	0.0177593
1955.37	-0.0896912
1956.85	0.576087
1958.33	-0.0970497
1959.81	0.0031023
1961.29	0.000751019
1962.77	0.0671496
1964.25	0.116212
1965.73	0.181933
1967.21	-0.266475
1968.69	0.225866
1970.16	0.289714
1971.64	-0.00547218
1973.12	0.0922809
1974.6	-0.065876
1976.08	-0.0873094
1977.55	-0.0574675
1979.03	-0.180779
1980.51	-0.235907
1981.98	0.116868
1983.46	0.163144
1984.94	0.0223432
1986.41	0.118987
1987.89	0.181562
1989.36	0.0918813
1990.84	0.0875049
1992.31	0.3038
1993.79	0.0981135
1995.26	0.0792007
1996.73	-0.226509
1998.21	0.227952
1999.68	0.158384
2001.15	0.240229
2002.63	0.321557
2004.1	0.0317807
2005.57	0.0290117
2007.04	0.0268531
2008.51	0.34543
2009.99	0.260567
2011.46	0.125706
2012.93	0.428557
2014.4	0.10831
2015.87	-0.128332
2017.34	0.4417
2018.81	0.136369
2020.28	0.133286
2021.75	0.398762
2023.21	0.227819
2024.68	-0.110094
2026.15	0.123512
2027.62	-0.0107427
2029.09	0.32591
2030.56	0.19409
2032.02	-0.00406694
2033.49	0.167395
2034.96	0.204637
2036.42	-0.0271873
2037.89	0.00925779
2039.36	-0.00503874
2040.82	-0.221128
2042.29	0.0842247
2043.75	0.188532
2045.22	0.293691
2046.68	0.0629106
2048.14	0.0848346
2049.61	-0.382216
2051.07	-0.209792
2052.54	0.197603
2054	-0.00358248
2055.46	0.670638
2056.93	0.213823
2058.39	0.194738
2059.85	0.00705862
2061.31	0.0555754
2062.77	0.205733
2064.23	-0.0808954
2065.7	0.457991
2067.16	0.2403
2068.62	-0.111542
2070.08	0.0081358
2071.54	0.0437284
2073	0.298105
2074.46	0.56915
2075.92	0.0484581
2077.38	0.335754
2078.83	0.117506
2080.29	0.0167651
2081.75	0.218638
2083.21	0.150548
2084.67	-0.0022788
2086.12	-0.0715151
2087.58	0.0605545
2089.04	0.377011
2090.49	0.659369
2091.95	-0.183481
2093.41	0.0819588
2094.86	0.0282621
2096.32	0.12506
2097.77	0.338417
2099.23	0.33334
2100.68	0.26108
2102.14	0.105543
2103.59	0.167994
2105.05	0.381656
2106.5	0.713124
2107.95	0.42824
2109.41	0.544032
2110.86	0.325921
2112.31	0.406784
2113.76	-0.0634599
2115.21	0.181127
2116.67	0.524258
2118.12	0.318874
2119.57	0.0817218
2121.02	0.244605
2122.47	-0.154883
2123.92	0.491703
2125.37	0.790544
2126.82	0.260156
2128.27	0.70711
2129.72	0.373785
2131.17	0.155556
2132.62	0.334139
2134.07	0.562082
2135.51	0.740827
2136.96	0.457886
2138.41	0.341924
2139.86	0.475482
2141.31	0.627022
2142.75	0.763166
2144.2	0.883467
2145.65	0.722665
2147.09	0.677381
2148.54	0.631526
2149.98	0.618034
2151.43	0.703095
2152.87	0.522197
2154.32	0.522846
2155.76	0.804721
2157.21	0.639323
2158.65	0.557353
2160.1	0.542747
2161.54	0.827885
2162.98	1.06511
2164.43	0.739963
2165.87	0.531341
2167.31	0.953708
2168.75	0.877031
2170.2	1.23115
2171.64	0.818374
2173.08	0.686589
2174.52	0.75321
2175.96	0.819271
2177.4	1.00184
2178.84	0.752749
2180.28	1.2028
2181.72	0.689328
2183.16	0.891326
2184.6	1.04375
2186.04	0.963406
2187.48	0.500352
2188.92	1.16883
2190.36	0.55586
2191.79	0.674973
2193.23	0.960006
2194.67	0.711126
2196.11	0.527348
2197.54	0.841147
2198.98	0.687507
2200.42	0.649452
2201.85	0.31243
2203.29	0.656652
2204.72	0.702896
2206.16	0.716854
2207.59	0.565626
2209.03	0.629672
2210.46	0.527498
2211.9	0.341874
2213.33	0.651736
2214.77	0.399421
2216.2	0.610116
2217.63	0.359586
2219.07	0.506126
2220.5	0.307115
2221.93	0.240217
2223.36	0.551736
2224.8	0.812407
2226.23	0.445942
2227.66	0.555402
2229.09	0.170793
2230.52	0.0816321
2231.95	0.189119
2233.39	0.149252
2234.81	0.175493
2236.25	0.611075
2237.67	0.345331
2239.1	-0.228498
2240.53	0.211071
2241.96	0.293161
2243.39	0.22953
2244.82	0.313036
2246.25	0.379721
2247.68	-0.0115542
2249.1	0.215127
2250.53	0.293078
2251.96	0.255446
2253.38	0.477326
2254.81	0.439041
2256.24	0.20721
2257.66	0.204797
2259.09	0.269661
2260.51	0.223429
2261.94	0.520123
2263.36	0.103936
2264.79	-0.214914
2266.21	0.164772
2267.64	0.202582
2269.06	0.0443606
2270.49	0.601629
2271.91	0.214337
2273.33	0.119859
2274.76	-0.0560479
2276.18	0.012536
2277.6	0.521348
2279.02	0.247985
2280.44	0.235335
2281.87	0.124716
2283.29	0.160793
2284.71	0.147964
2286.13	0.11898
2287.55	0.351527
2288.97	0.0782681
2290.39	0.229988
2291.81	0.00609779
2293.23	0.158263
2294.65	0.0978565
2296.07	-0.17546
2297.49	0.058578
2298.91	0.0471191
2300.33	-0.0789275
2301.74	0.155883
2303.16	-0.117404
2304.58	-0.275944
2306	0.28791
2307.41	0.0469327
2308.83	0.134047
2310.25	0.154961
2311.66	0.0603981
2313.08	-0.0671735
2314.5	-0.293273
2315.91	0.139684
2317.33	0.0135612
2318.74	0.167922
2320.16	0.470726
2321.57	0.49239
2322.98	0.149353
2324.4	0.24989
2325.81	0.381456
2327.23	0.198112
2328.64	0.294448
2330.05	0.259027
2331.46	-0.0555096
2332.88	-0.0232577
2334.29	0.355237
2335.7	0.20738
2337.11	-0.00654697
2338.52	-0.0731654
2339.94	0.138681
2341.35	0.267366
2342.76	-0.0476723
2344.17	0.326473
2345.58	0.24144
2346.99	0.287798
2348.4	0.366879
2349.81	0.0202112
2351.22	0.033021
2352.62	0.56765
2354.03	-0.0907063
2355.44	0.245996
2356.85	0.174608
2358.26	-0.238234
2359.67	-0.19516
2361.07	0.0426755
2362.48	0.215145
2363.89	-0.276887
2365.29	0.121924
2366.7	0.0190163
2368.11	-0.163924
2369.51	-0.135982
2370.92	0.183145
2372.32	0.116339
2373.73	0.114886
2375.13	0.081594
2376.54	-0.0324016
2377.94	-0.114982
2379.35	0.186924
2380.75	-0.203381
2382.15	0.271864
2383.56	-0.135685
2384.96	-0.318517
2386.36	-0.181053
2387.76	-0.0431976
2389.17	0.175083
2390.57	-0.00424623
2391.97	-0.13456
2393.37	0.261218
2394.77	0.291511
2396.17	0.131619
2397.58	0.0359526
2398.98	0.369839
2400.38	0.306862
2401.78	0.244187
2403.18	-0.167807
2404.58	0.071063
2405.97	0.0868888
2407.37	0.292324
2408.77	-0.169224
2410.17	-0.170907
2411.57	0.0810604
2412.97	0.159253
2414.37	0.206796
2415.76	0.00228119
2417.16	-0.232764
2418.56	-0.118752
2419.95	0.0114608
2421.35	0.205002
2422.75	0.350785
2424.14	0.337919
2425.54	0.150773
2426.93	0.360216
2428.33	0.0473332
2429.72	-0.074646
2431.12	0.0736003
2432.51	0.317381
2433.91	0.243332
2435.3	0.0253162
2436.7	0.298518
2438.09	0.157336
2439.48	-0.175544
2440.88	0.284983
2442.27	0.173241
2443.66	0.0771956
2445.05	0.23486
2446.44	0.34469
2447.84	0.105657
2449.23	0.199468
2450.62	-0.0232925
2452.01	0.26104
2453.4	-0.0237913
2454.79	-0.197038
2456.18	0.484555
2457.57	0.0274501
2458.96	-0.0817361
2460.35	0.18819
2461.74	-0.28577
2463.13	0.219841
2464.52	0.0926003
2465.91	-0.271693
2467.29	0.153526
2468.68	-0.39995
2470.07	-0.0225749
2471.46	0.133374
2472.85	-0.152517
2474.23	0.379947
2475.62	0.517795
2477.01	-0.0993762
2478.39	0.352335
2479.78	0.0659065
2481.16	-0.0631266
2482.55	-0.0196571
2483.93	-0.148836
2485.32	0.44096
2486.7	0.263027
2488.09	-0.243166
2489.47	0.170782
2490.86	0.116571
2492.24	0.249454
2493.62	0.15
2495.01	0.0674014
2496.39	0.125511
2497.77	0.106828
2499.15	0.150336
2500.54	0.286331
2501.92	-0.11948
2503.3	-0.0930381
2504.68	0.225691
2506.06	0.0501223
2507.45	-0.0637183
2508.83	0.407003
2510.21	0.0323768
2511.59	-0.0494432
2512.97	0.0228209
2514.35	-0.0728021
2515.73	0.0620255
2517.11	0.105552
2518.48	0.0424738
2519.86	0.101873
2521.24	0.0846362
2522.62	-0.207867
2524	0.353505
2525.38	-0.260143
2526.75	0.147254
2528.13	0.00652504
2529.51	0.0037384
2530.89	0.0478497
2532.26	0.0325561
2533.64	-0.148701
2535.02	-0.0710478
2536.39	0.128133
2537.77	0.372323
2539.14	0.023294
2540.52	-0.280705
2541.89	0.234769
2543.27	0.294924
2544.64	0.431605
2546.01	0.220447
2547.39	0.116525
2548.76	0.301565
2550.14	0.25917
2551.51	0.110138
2552.88	0.00584936
2554.25	0.173851
2555.63	0.158957
2557	-0.144608
2558.37	0.00677204
2559.74	0.279548
2561.11	-0.0232916
2562.49	-0.386128
2563.86	-0.111976
2565.23	0.147371
2566.6	0.240244
2567.97	-0.0608325
2569.34	-0.149746
2570.71	0.397907
2572.08	0.157456
2573.45	0.356642
2574.82	0.0405059
2576.18	0.0124083
2577.55	0.28749
2578.92	0.0771995
2580.29	-0.0879068
2581.66	-0.0410733
2583.02	0.0964108
2584.39	0.0972195
2585.76	0.113132
2587.13	0.250385
2588.49	0.251376
2589.86	0.207005
2591.22	0.162544
2592.59	-0.0186586
2593.96	-0.033824
2595.32	-0.140687
2596.69	0.342008
2598.05	-0.00854731
2599.42	0.260848
2600.78	0.227788
2602.14	-0.0766644
2603.51	0.0424051
2604.87	-0.245574
2606.23	0.20598
2607.6	0.249815
2608.96	0.323044
2610.32	0.199339
2611.69	0.0445662
2613.05	0.204833
2614.41	-0.146631
2615.77	0.0125923
2617.13	0.231625
2618.49	0.196122
2619.86	-0.197792
2621.22	0.261835
2622.58	0.332755
2623.94	0.239527
2625.3	0.310538
2626.66	0.336497
2628.02	0.540943
2629.37	0.104527
2630.73	0.248862
2632.09	0.110393
2633.45	0.269197
2634.81	0.27929
2636.17	0.304167
2637.53	0.240073
2638.88	0.131701
2640.24	0.171574
2641.6	0.448137
2642.96	0.104062
2644.31	-0.165565
2645.67	0.184748
2647.02	0.622676
2648.38	0.146046
2649.74	0.0668859
2651.09	0.163703
2652.45	0.113167
2653.8	0.209609
2655.16	-0.0892873
2656.51	0.301601
2657.86	0.180639
2659.22	0.236149
2660.57	0.306596
2661.93	0.0115047
2663.28	0.344309
2664.63	0.384063
2665.98	0.408495
2667.34	-0.194228
2668.69	-0.0242877
2670.04	-0.0144653
2671.39	0.155707
2672.75	-0.124266
2674.09	-0.054852
2675.45	0.37783
2676.8	0.418871
2678.15	0.199388
2679.5	0.227238
2680.85	0.386442
2682.2	-0.265237
2683.55	0.287479
2684.9	0.043519
2686.25	0.32217
2687.6	0.426748
2688.94	0.225494
2690.29	0.48732
2691.64	0.0943174
2692.99	-0.0095849
2694.34	0.248283
2695.68	0.172345
2697.03	-0.192741
2698.38	0.210985
2699.73	-0.136974
2701.07	-0.208363
2702.42	0.0401039
2703.76	0.159218
2705.11	0.293395
2706.45	0.442256
2707.8	0.40239
2709.15	0.492784
2710.49	0.13272
2711.83	-0.0535049
2713.18	0.195958
2714.52	-0.0486946
2715.87	0.404364
2717.21	0.261263
2718.55	0.467009
2719.9	0.352411
2721.24	0.266478
2722.58	0.38387
2723.93	0.209747
2725.27	0.501017
2726.61	0.428055
2727.95	0.544017
2729.29	0.0485363
2730.63	0.324217
2731.98	0.643436
2733.32	0.148018
2734.66	0.147395
2736	0.146943
2737.34	0.292044
2738.68	0.000823021
2740.02	0.436542
2741.36	0.0429683
2742.7	0.172325
2744.03	0.519012
2745.37	0.167575
2746.71	0.48403
2748.05	0.306508
2749.39	-0.2916
2750.72	-0.0478663
2752.06	0.253874
2753.4	0.236754
2754.74	-0.0410004
2756.07	-0.101212
2757.41	0.28761
2758.75	-0.00394344
2760.08	0.168094
2761.42	-0.122594
2762.76	-0.152368
2764.09	0.0785751
2765.42	0.0924726
2766.76	0.105998
2768.09	0.0319681
2769.43	-0.173223
2770.76	0.0974693
2772.1	0.150041
2773.43	0.129478
2774.76	0.0219517
2776.1	-0.0566406
2777.43	-0.091629
2778.76	-0.154872
2780.1	0.069818
2781.43	-0.0214643
2782.76	0.21753
2784.09	0.212348
2785.42	-0.0795088
2786.75	0.0731716
2788.09	-0.0459051
2789.42	0.0790172
2790.75	-0.0242481
2792.08	0.345066
2793.41	-0.0430293
2794.74	0.126483
2796.07	0.209909
2797.4	0.0928388
2798.73	0.37516
2800.06	0.0431576
2801.39	-0.17466
2802.71	-0.349649
2804.04	-0.0401382
2805.37	-0.229825
2806.7	0.135335
2808.03	-0.112159
2809.35	-0.203316
2810.68	-0.0103097
2812.01	0.126126
2813.33	0.263339
2814.66	-0.0803647
2815.99	0.0167627
2817.31	0.114825
2818.64	0.156708
2819.96	0.184446
2821.29	-0.213376
2822.61	-0.129854
2823.94	0.250649
2825.26	0.191553
2826.59	-0.150711
2827.91	-0.294199
2829.23	0.129077
2830.56	-0.140965
2831.88	0.155424
2833.21	0.239428
2834.53	0.493007
2835.85	0.151727
2837.17	0.404376
2838.5	0.557512
2839.82	0.469962
2841.14	0.622885
2842.46	0.620597
2843.78	0.60473
2845.1	0.744937
2846.42	1.04114
2847.74	1.11155
2849.06	1.18202
2850.38	1.19569
2851.71	1.42096
2853.03	1.44787
2854.34	1.58748
2855.66	1.54319
2856.98	1.56953
2858.3	1.49704
2859.62	1.28334
2860.94	1.5214
2862.26	1.66029
2863.57	1.98227
2864.89	2.06397
2866.21	1.84935
2867.53	2.14277
2868.84	2.22495
2870.16	2.53306
2871.48	2.39017
2872.79	2.684
2874.11	2.41343
2875.42	2.86042
2876.74	2.27827
2878.05	2.79352
2879.37	2.60474
2880.68	2.4586
2882	2.86125
2883.31	3.11007
2884.63	2.53125
2885.94	2.72535
2887.26	2.3721
2888.57	2.65007
2889.88	2.64666
2891.19	2.51629
2892.51	2.69382
2893.82	2.87102
2895.13	3.48246
2896.44	2.49846
2897.76	2.94336
2899.07	3.03923
2900.38	3.19177
2901.69	3.30278
2903	3.31607
2904.31	3.37146
2905.62	3.51102
2906.93	3.59516
2908.24	3.76398
2909.55	3.52791
2910.86	3.57218
2912.17	3.81245
2913.48	4.08015
2914.79	3.81461
2916.1	4.1355
2917.41	4.48279
2918.71	4.18533
2920.02	4.79699
2921.33	4.63986
2922.64	4.7356
2923.94	4.79072
2925.25	4.91684
2926.56	4.79198
2927.86	5.14249
2929.17	4.72378
2930.48	4.98959
2931.78	5.0033
2933.09	4.94687
2934.39	5.23985
2935.7	4.69435
2937	4.97361
2938.31	4.95956
2939.61	4.51261
2940.92	4.84865
2942.22	4.86412
2943.53	4.3636
2944.83	4.28353
2946.13	3.86886
2947.43	3.77625
2948.74	3.92135
2950.04	3.88357
2951.34	3.77419
2952.64	3.88714
2953.95	3.11674
2955.25	3.43808
2956.55	3.45213
2957.85	3.11803
2959.15	3.2762
2960.45	3.1708
2961.75	3.50169
2963.05	3.17451
2964.35	3.22549
2965.65	2.88197
2966.95	2.52261
2968.25	3.01941
2969.55	2.79863
2970.85	2.52138
2972.15	2.48342
2973.45	2.60057
2974.75	2.36591
2976.05	2.49671
2977.34	2.1618
2978.64	2.3323
2979.94	2.13524
2981.24	2.03563
2982.53	2.01997
2983.83	1.65312
2985.13	1.96209
2986.42	1.56964
2987.72	1.44553
2989.01	1.91254
2990.31	1.41019
2991.61	1.58204
2992.9	1.24707
2994.19	1.30454
2995.49	0.95368
2996.78	1.1079
2998.08	0.868867
2999.37	0.826641
3000.67	0.672741
3001.96	0.813826
3003.25	0.731011
3004.55	0.592343
3005.84	0.607623
3007.13	0.692401
3008.42	0.426628
3009.72	0.300255
3011.01	0.578653
3012.3	0.38157
3013.59	0.338257
3014.88	0.155971
3016.17	0.253164
3017.46	0.239517
3018.76	0.101134
3020.05	0.213354
3021.34	0.0193448
3022.63	0.0471644
3023.92	0.0602808
3025.21	0.460952
3026.49	-0.16429
3027.78	0.0976624
3029.07	-0.248248
3030.36	0.278059
3031.65	0.05933
3032.94	-0.0478187
3034.23	0.563083
3035.51	0.428189
3036.8	0.126885
3038.09	-0.0101514
3039.38	0.0992503
3040.66	-0.150278
3041.95	0.011888
3043.23	0.351745
3044.52	0.00699663
3045.81	0.389162
3047.09	0.239726
3048.38	0.256416
3049.66	0.479719
3050.95	0.281374
3052.23	0.165732
3053.52	0.309442
3054.8	0.288925
3056.09	0.417586
3057.37	0.586127
3058.65	0.672058
3059.94	0.417254
3061.22	0.20392
3062.5	0.182092
3063.79	0.406233
3065.07	0.522908
3066.35	0.491334
3067.63	0.229582
3068.92	0.0497589
3070.2	0.332167
3071.48	-0.147696
3072.76	0.228307
3074.04	0.0593534
3075.32	-0.0694542
3076.6	0.141137
3077.88	0.514762
3079.16	-0.0742941
3080.44	0.111508
3081.72	-0.0811672
3083	0.0121636
3084.28	0.038331
3085.56	-0.0846357
3086.84	0.0092411
3088.12	0.156901
3089.4	-0.0624232
3090.67	0.0436578
3091.95	-0.1624
3093.23	0.0387268
3094.51	-0.0446916
3095.78	0.0484886
3097.06	0.0333405
3098.34	-0.130865
3099.61	-0.0375762
3100.89	0.0963035
3102.17	-0.108335
3103.44	0.256058
3104.72	0.0658169
3105.99	0.065794
3107.27	0.107204
3108.54	0.217221
3109.82	0.0710602
3111.09	0.128827
3112.37	0.187362
3113.64	0.0702362
3114.92	0.359782
3116.19	0.269535
3117.46	0.192152
3118.74	0.263154
3120.01	0.441782
3121.28	0.239988
3122.55	-0.11116
3123.83	0.215215
3125.1	0.257174
3126.37	0.00181675
3127.64	0.640145
3128.91	0.237163
3130.19	0.537926
3131.46	0.216908
3132.73	0.274453
3134	0.169678
3135.27	0.280684
3136.54	0.553079
3137.81	0.582109
3139.08	0.664757
3140.35	0.720291
3141.62	0.695166
3142.89	0.321102
3144.16	0.337512
3145.42	0.448406
3146.69	0.465986
3147.96	0.51101
3149.23	0.489622
