200.43	-0.0918837
202.244	-0.0624676
204.059	-0.032052
205.873	0.169395
207.688	0.00617886
209.501	0.449926
211.314	0.260481
213.127	0.676581
214.941	0.169144
216.753	1.09165
218.564	0.825943
220.375	0.173873
222.186	0.224884
223.999	0.349176
225.809	0.183776
227.618	0.0667667
229.428	0.601294
231.236	-0.216941
233.045	0.4608
234.855	-0.0916042
236.663	0.418085
238.471	-0.130964
240.278	-0.653605
242.085	0.344583
243.891	0.331608
245.698	0.270178
247.503	0.738178
249.309	-0.00384426
251.116	0.385693
252.921	0.0721407
254.725	0.118808
256.529	0.0201864
258.333	0.669389
260.136	0.524664
261.939	0.0205135
263.742	-0.0966349
265.544	-0.0924101
267.346	-0.0397549
269.148	0.325873
270.949	0.980013
272.75	0.861413
274.55	0.162582
276.351	0.209448
278.15	0.543507
279.95	0.152562
281.749	0.674556
283.548	0.448199
285.346	-0.355943
287.144	0.760736
288.942	0.172666
290.739	0.448729
292.536	0.0314045
294.333	0.572917
296.129	0.35018
297.925	-0.0864544
299.721	0.26606
301.514	0.212034
303.309	0.44366
305.104	0.172603
306.898	0.568628
308.692	-0.323369
310.486	0.572923
312.279	0.469244
314.072	0.557704
315.862	0.957484
317.654	0.644715
319.446	0.928888
321.238	-0.191763
323.029	0.761836
324.819	0.26136
326.608	0.404946
328.398	0.859031
330.188	0.404483
331.977	0.187367
333.766	0.351135
335.553	0.608491
337.341	0.504556
339.129	0.541983
340.917	0.00376606
342.704	0.445159
344.489	0.455928
346.275	0.323813
348.062	-0.0224924
349.845	0.0614967
351.631	0.479585
353.416	0.419638
355.201	0.668715
356.984	0.796963
358.768	0.447048
360.552	-0.23707
362.333	0.696978
364.116	0.962979
365.899	0.586283
367.68	0.185658
369.462	-0.499644
371.243	-0.213262
373.023	0.710566
374.804	-0.164214
376.585	0.0960579
378.363	0.662745
380.143	0.0983963
381.923	0.807186
383.7	0.387161
385.479	-0.125113
387.256	0.0456705
389.034	0.804652
390.812	-0.267702
392.588	0.962433
394.365	-0.249274
396.14	0.277172
397.916	0.334021
399.691	0.202754
401.467	0.0475359
403.24	0.0560751
405.015	0.157806
406.788	0.0239086
408.563	0.499863
410.335	-0.31577
412.109	0.417825
413.88	0.0956192
415.654	-0.155481
417.424	0.720431
419.197	0.189099
420.967	0.455847
422.739	-0.0522261
424.508	0.612695
426.279	-0.249231
428.048	-0.384218
429.819	-0.237996
431.587	0.0489435
433.356	-0.0863323
435.124	-0.010088
436.891	0.0895824
438.66	0.423265
440.426	-0.582072
442.194	0.710004
443.96	0.662382
445.725	-0.347551
447.492	-0.303809
449.257	-0.143706
451.021	0.436701
452.787	0.316099
454.551	-0.410551
456.314	0.169098
458.079	0.514779
459.842	0.603984
461.604	0.182118
463.368	0.529229
465.13	0.227869
466.891	0.161739
468.654	0.423655
470.415	0.083045
472.175	0.580373
473.935	0.0531149
475.696	0.268988
477.456	0.179982
479.215	0.368649
480.973	0.812475
482.733	0.511054
484.491	0.816363
486.249	0.820899
488.006	0.408131
489.765	1.25646
491.522	0.893366
493.278	0.787369
495.034	0.868492
496.789	0.528334
498.544	0.398119
500.301	0.642439
502.056	0.816097
503.81	0.425398
505.564	0.315049
507.317	0.508914
509.071	0.0191946
510.825	1.36295
512.578	0.305182
514.33	0.492988
516.082	-0.214578
517.833	0.770318
519.585	0.24897
521.335	0.197259
523.086	-0.0897274
524.836	0.773466
526.586	0.040514
528.335	0.902723
530.085	1.24837
531.835	0.164503
533.584	0.391928
535.332	0.407373
537.08	0.631723
538.827	0.644102
540.574	0.468672
542.321	0.199651
544.068	0.814931
545.814	0.801298
547.56	0.486173
549.305	0.427032
551.05	-0.00224876
552.795	-0.430407
554.54	0.0205727
556.282	0.540134
558.025	-0.255401
559.769	-0.196514
561.512	0.25413
563.255	0.543612
564.997	0.235646
566.739	-0.415819
568.481	0.105087
570.223	0.328191
571.964	-0.686334
573.705	0.18202
575.443	0.363877
577.183	0.455704
578.923	0.59487
580.663	2.57492e-005
582.402	0.0251522
584.141	-0.478957
585.879	-0.225464
587.615	0.533098
589.353	-0.457808
591.09	0.183812
592.828	0.203721
594.564	-0.0526104
596.299	-0.0788174
598.035	0.240056
599.771	0.0984631
601.506	0.37016
603.242	-0.348396
604.974	-0.539102
606.709	0.532923
608.443	0.316951
610.177	-0.151372
611.908	0.619947
613.642	0.130294
615.374	-0.243675
617.105	-0.158959
618.837	-0.418294
620.569	0.191448
622.3	0.113015
624.03	0.0338478
625.761	0.64007
627.491	0.607338
629.219	0.531018
630.949	0.0235996
632.677	0.294098
634.406	0.132117
636.135	0.44919
637.861	0.376573
639.59	0.71208
641.318	0.884589
643.043	-0.10797
644.77	0.562039
646.495	0.207472
648.222	-0.440227
649.948	-0.0845575
651.672	0.615475
653.398	0.274148
655.121	0.27699
656.846	0.464307
658.569	0.151548
660.293	0.134409
662.015	0.252767
663.738	0.597598
665.46	0.140168
667.183	0.435199
668.903	0.660952
670.626	-0.164847
672.346	1.18479
674.067	0.63775
675.787	0.665098
677.508	0.280843
679.226	0.194566
680.947	0.750899
682.665	0.685191
684.385	0.433082
686.102	0.869573
687.821	0.13002
689.538	0.379684
691.254	0.444377
692.972	1.03824
694.688	0.203273
696.406	0.79531
698.121	0.787314
699.835	0.524933
701.552	0.974576
703.266	0.595315
704.98	0.514422
706.695	0.639665
708.409	0.810178
710.121	0.682158
711.836	0.485299
713.548	1.04331
715.26	1.21162
716.973	0.511954
718.685	1.41046
720.396	0.917296
722.108	0.857808
723.818	1.02603
725.528	0.966531
727.238	0.498008
728.949	1.27799
730.658	0.831846
732.367	1.45065
734.075	1.18562
735.785	1.37322
737.493	0.860853
739.2	0.305013
740.907	0.720351
742.614	0.865954
744.322	1.48552
746.028	1.09332
747.734	1.22028
749.439	1.48353
751.144	1.47821
752.849	0.866951
754.555	1.29181
756.26	1.04328
757.963	1.51663
759.667	1.11339
761.37	1.1617
763.073	1.36859
764.775	0.694932
766.477	0.968246
768.179	1.57916
769.883	1.50992
771.584	1.59684
773.285	1.54659
774.986	1.85762
776.686	2.0335
778.386	1.01235
780.085	1.41726
781.785	1.30322
783.484	1.50613
785.182	1.91178
786.881	1.90762
788.579	1.51543
790.276	0.916618
791.974	0.722778
793.671	1.4309
795.367	2.00201
797.064	1.55879
798.76	1.18556
800.456	1.66993
802.151	1.79534
803.846	1.96636
805.541	1.93479
807.234	2.53156
808.928	1.77902
810.622	1.9014
812.315	1.66384
814.008	1.96379
815.701	1.50182
817.394	1.82346
819.086	1.51887
820.778	1.63923
822.468	1.67056
824.159	1.50196
825.85	2.22635
827.541	1.92768
829.231	1.63207
830.921	1.20598
832.609	1.54003
834.298	2.12175
835.987	2.14764
837.676	0.968222
839.364	1.90767
841.051	1.79643
842.738	1.48265
844.426	1.5034
846.113	2.08361
847.798	1.6822
849.484	1.88699
851.171	1.66927
852.857	1.498
854.54	1.08053
856.226	2.12208
857.911	2.01791
859.593	1.25922
861.278	1.55588
862.961	1.19789
864.645	1.19887
866.327	1.55961
868.01	1.08556
869.692	0.994257
871.373	1.647
873.055	1.19426
874.735	1.48592
876.416	1.14579
878.097	1.12158
879.776	0.961822
881.457	1.20803
883.135	0.911735
884.815	0.998143
886.495	1.21857
888.172	0.873254
889.851	1.45124
891.528	1.46363
893.206	1.04672
894.882	0.809319
896.56	1.26815
898.237	0.916599
899.912	0.991091
901.589	1.22142
903.263	1.27161
904.94	0.94152
906.614	0.500899
908.289	0.73075
909.962	1.47315
911.635	1.41401
913.31	1.06679
914.982	1.1647
916.656	1.085
918.328	0.983239
920.001	1.85599
921.672	1.09074
923.345	0.72576
925.015	0.716344
926.685	0.819136
928.357	0.967654
930.026	0.499476
931.698	0.958809
933.366	0.668243
935.035	1.01759
936.705	1.27906
938.373	0.791523
940.041	0.988894
941.71	1.05518
943.377	0.261677
945.044	1.12301
946.712	1.32131
948.378	0.855552
950.044	0.917657
951.709	1.24323
953.376	1.34805
955.041	1.65287
956.706	1.12257
958.372	0.926258
960.036	0.401487
961.699	0.606465
963.362	0.944291
965.027	0.860674
966.69	0.884946
968.352	0.640906
970.014	0.483287
971.676	1.01052
973.339	0.94087
975	1.0717
976.661	1.2044
978.322	0.586555
979.982	0.85419
981.642	1.12161
983.303	1.60916
984.962	0.921422
986.621	1.75888
988.28	1.26644
989.938	0.81734
991.596	0.478544
993.254	1.15597
994.911	0.640677
996.57	0.346704
998.227	1.22165
999.884	1.2139
1001.54	0.655205
1003.2	0.823042
1004.85	0.462525
1006.51	0.849554
1008.16	0.379723
1009.82	0.305858
1011.47	1.00005
1013.12	0.532269
1014.78	0.459698
1016.43	0.781643
1018.08	0.425471
1019.74	0.573441
1021.39	1.02841
1023.04	0.43506
1024.69	0.782639
1026.34	0.147385
1028	0.451837
1029.65	0.471602
1031.3	0.446497
1032.95	0.74731
1034.6	0.566169
1036.25	0.92893
1037.9	0.876376
1039.54	0.344912
1041.19	1.48972
1042.84	0.917091
1044.49	0.477228
1046.14	0.321979
1047.78	0.668131
1049.43	0.646689
1051.08	0.865436
1052.72	0.976464
1054.37	0.957553
1056.02	1.13425
1057.66	0.223768
1059.31	1.26931
1060.95	0.226978
1062.6	0.705909
1064.24	0.0532436
1065.88	0.0736685
1067.53	0.310383
1069.17	0.307007
1070.81	0.75903
1072.45	0.385661
1074.1	-0.182221
1075.74	0.227338
1077.38	0.182542
1079.02	0.876242
1080.66	0.334643
1082.3	0.140018
1083.94	-0.207178
1085.58	0.246298
1087.22	0.134159
1088.86	0.215037
1090.5	0.96481
1092.14	0.890628
1093.78	0.492114
1095.42	0.80649
1097.05	0.646882
1098.69	0.165775
1100.33	0.311282
1101.96	0.200285
1103.6	0.564357
1105.24	0.284317
1106.87	0.370545
1108.51	0.284438
1110.14	0.756324
1111.78	0.689025
1113.41	0.233481
1115.05	0.614465
1116.68	0.522364
1118.31	0.151781
1119.95	0.146544
1121.58	0.270734
1123.21	0.395838
1124.85	0.414836
1126.48	0.691348
1128.11	0.498052
1129.74	0.412437
1131.37	0.477064
1133	0.349583
1134.63	0.371625
1136.26	0.179321
1137.89	0.00745201
1139.52	0.0267773
1141.15	0.0664616
1142.78	0.553708
1144.41	0.550031
1146.04	0.547029
1147.66	0.608915
1149.29	0.41598
1150.92	0.223631
1152.55	0.542464
1154.17	-0.139807
1155.8	0.26335
1157.43	0.198046
1159.05	0.175656
1160.68	0.536852
1162.3	0.643888
1163.93	0.050293
1165.55	-0.053771
1167.17	0.543571
1168.8	-0.305861
1170.42	0.246231
1172.05	-0.074995
1173.67	-0.461266
1175.29	0.148969
1176.91	0.333764
1178.54	-0.222944
1180.16	0.195509
1181.78	0.127725
1183.4	-0.00275517
1185.02	0.648753
1186.64	-0.0317602
1188.26	0.0889282
1189.88	0.228576
1191.5	0.429199
1193.12	0.0601273
1194.74	0.426064
1196.36	0.560365
1197.97	0.443949
1199.59	0.413189
1201.21	0.405704
1202.83	0.254708
1204.44	0.273381
1206.06	0.565385
1207.68	0.608274
1209.29	0.693172
1210.91	0.0472879
1212.52	0.734463
1214.14	-0.0190096
1215.75	0.78799
1217.37	0.426837
1218.98	1.06283
1220.59	0.991542
1222.21	0.506311
1223.82	0.37545
1225.43	0.49473
1227.05	0.780895
1228.66	0.323575
1230.27	1.00503
1231.88	1.00517
1233.49	1.15123
1235.1	1.40188
1236.72	1.32312
1238.33	1.18339
1239.94	0.899566
1241.55	1.67066
1243.16	1.05564
1244.76	1.1845
1246.37	0.58809
1247.98	0.818346
1249.59	1.02711
1251.2	0.78036
1252.8	1.13373
1254.41	0.887939
1256.02	1.78087
1257.62	1.26854
1259.23	1.08829
1260.84	1.88174
1262.44	1.14391
1264.05	1.13059
1265.66	1.65564
1267.26	1.22673
1268.86	1.85399
1270.47	1.65092
1272.07	1.79918
1273.67	0.888966
1275.28	1.49115
1276.88	1.59473
1278.48	1.63522
1280.09	0.867471
1281.69	1.54883
1283.29	1.11255
1284.89	1.13212
1286.49	1.62805
1288.09	1.56676
1289.69	1.63045
1291.29	1.46737
1292.89	1.73813
1294.49	2.00803
1296.09	1.57425
1297.69	1.75837
1299.29	1.48663
1300.89	1.62598
1302.49	1.94916
1304.08	1.59159
1305.68	1.56287
1307.28	1.20504
1308.88	2.0786
1310.47	1.76164
1312.07	1.09773
1313.66	1.51984
1315.26	1.06354
1316.85	1.32357
1318.45	1.42057
1320.04	1.45614
1321.64	1.55184
1323.23	1.68646
1324.83	1.83926
1326.42	1.40147
1328.01	2.28196
1329.61	1.29797
1331.2	1.55164
1332.79	1.05949
1334.38	1.41842
1335.97	1.87948
1337.56	1.31206
1339.16	1.30899
1340.75	1.50567
1342.34	2.02174
1343.93	1.14767
1345.52	1.47902
1347.11	1.36851
1348.7	1.03963
1350.29	1.1141
1351.87	0.751021
1353.46	1.37
1355.05	1.27037
1356.64	1.13123
1358.22	1.43121
1359.81	0.751544
1361.4	0.809882
1362.98	0.428463
1364.57	0.485713
1366.16	1.10099
1367.74	1.07914
1369.33	1.01872
1370.91	0.820449
1372.5	0.922101
1374.08	0.746296
1375.67	0.949228
1377.25	0.495612
1378.83	0.379782
1380.41	1.05888
1382	1.11976
1383.58	0.244645
1385.16	0.621501
1386.74	1.07701
1388.33	0.956332
1389.91	0.935665
1391.49	1.86837
1393.07	0.321667
1394.65	1.07675
1396.23	1.23645
1397.81	1.33586
1399.39	0.760442
1400.97	1.27386
1402.55	1.15269
1404.13	0.477671
1405.7	0.930931
1407.28	0.930028
1408.86	0.337236
1410.44	0.851448
1412.01	0.851913
1413.59	0.733352
1415.17	1.2651
1416.74	0.493888
1418.32	0.393232
1419.89	1.08094
1421.47	0.626992
1423.04	0.922915
1424.62	1.22036
1426.19	0.849885
1427.77	0.893287
1429.34	0.503404
1430.91	0.663769
1432.49	0.783611
1434.06	1.25655
1435.63	1.31573
1437.2	1.31608
1438.78	1.53338
1440.35	2.36091
1441.92	1.99054
1443.49	1.46371
1445.06	1.70377
1446.63	1.78679
1448.2	1.98793
1449.77	2.48429
1451.34	2.72569
1452.91	1.94512
1454.48	1.49901
1456.05	1.72164
1457.62	1.76659
1459.18	1.90863
1460.75	1.65524
1462.32	2.26561
1463.89	1.26118
1465.45	1.12139
1467.02	1.21708
1468.59	0.370614
1470.15	0.80138
1471.72	1.17405
1473.28	0.939577
1474.85	0.666767
1476.41	0.276803
1477.98	1.06332
1479.54	0.908666
1481.1	0.753942
1482.67	1.0499
1484.23	0.953758
1485.79	0.798517
1487.36	1.28889
1488.92	0.720397
1490.48	0.737611
1492.04	0.576662
1493.61	0.491969
1495.17	0.347169
1496.73	0.338027
1498.29	0.231368
1499.85	-0.107753
1501.41	0.273187
1502.97	0.421723
1504.53	0.377081
1506.09	0.468291
1507.65	0.365335
1509.2	0.145684
1510.76	0.176256
1512.32	0.360084
1513.88	0.21585
1515.43	0.744902
1516.99	0.850851
1518.55	0.53546
1520.1	0.163908
1521.66	0.118651
1523.22	0.646593
1524.77	0.179809
1526.33	-0.115212
1527.88	0.389417
1529.44	0.321643
1530.99	0.766685
1532.54	0.0353842
1534.1	0.613481
1535.65	1.15336
1537.21	0.313731
1538.76	0.609041
1540.31	0.244163
1541.86	0.124977
1543.42	0.589355
1544.97	1.0338
1546.52	0.800977
1548.07	0.643499
1549.62	0.298864
1551.17	0.872598
1552.72	1.07158
1554.27	1.12162
1555.82	0.276523
1557.37	0.591476
1558.92	0.94536
1560.47	0.834586
1562.02	0.930644
1563.56	0.971873
1565.11	1.18163
1566.66	0.981001
1568.21	0.780087
1569.75	1.32537
1571.3	0.731657
1572.85	1.59365
1574.39	1.35414
1575.94	1.13331
1577.49	1.09935
1579.03	1.32716
1580.57	0.547359
1582.12	1.41153
1583.66	0.819839
1585.21	1.74226
1586.75	1.22631
1588.3	1.21509
1589.84	1.18493
1591.38	0.854813
1592.92	1.16064
1594.47	1.16666
1596.01	1.07903
1597.55	1.42283
1599.09	1.28005
1600.63	1.56932
1602.17	1.25877
1603.71	1.17322
1605.25	1.23722
1606.79	1.37507
1608.33	1.511
1609.87	1.06193
1611.41	1.02406
1612.95	1.37862
1614.49	1.3373
1616.03	0.882936
1617.57	1.17935
1619.1	1.17683
1620.64	0.932343
1622.18	1.08256
1623.72	1.40205
1625.25	0.954028
1626.79	0.917149
1628.32	1.87057
1629.86	0.78346
1631.39	1.28501
1632.93	1.00107
1634.46	1.31509
1636	1.44301
1637.53	0.956298
1639.07	1.7197
1640.6	1.32712
1642.13	1.30681
1643.67	1.58332
1645.2	1.57914
1646.73	2.37359
1648.26	1.15972
1649.8	1.50771
1651.33	1.68921
1652.86	1.68633
1654.39	1.74026
1655.92	2.14699
1657.45	1.57138
1658.98	2.4771
1660.51	2.06621
1662.04	1.63573
1663.57	1.51891
1665.1	1.08767
1666.63	1.91241
1668.16	2.11002
1669.68	1.95878
1671.21	1.09071
1672.74	1.53215
1674.27	1.62395
1675.79	1.62343
1677.32	1.27241
1678.85	1.19649
1680.37	0.91733
1681.9	1.31758
1683.42	1.31299
1684.95	1.08826
1686.47	1.39599
1688	1.2456
1689.52	0.546218
1691.05	0.58018
1692.57	1.1815
1694.09	0.940747
1695.62	0.992573
1697.14	0.879636
1698.66	0.912562
1700.18	0.634761
1701.71	0.53917
1703.23	0.133335
1704.75	0.583447
1706.27	0.268188
1707.79	0.771239
1709.31	0.528626
1710.83	0.304646
1712.35	0.099349
1713.87	0.401834
1715.39	0.359925
1716.91	0.480816
1718.43	0.0772552
1719.95	0.234074
1721.47	-0.114404
1722.99	0.205244
1724.5	0.0389376
1726.02	-0.0179005
1727.54	-0.055438
1729.06	-0.110018
1730.57	-0.430361
1732.09	0.143511
1733.61	0.251469
1735.12	0.242673
1736.64	0.330521
1738.15	0.212669
1739.67	-0.0290813
1741.18	-0.0417442
1742.7	0.374261
1744.21	0.149371
1745.72	-0.182123
1747.24	-0.0301838
1748.75	0.123981
1750.26	-0.017704
1751.77	-0.0162554
1753.29	-0.380221
1754.8	0.327089
1756.31	0.140956
1757.82	-0.316912
1759.33	0.29791
1760.84	-0.269091
1762.36	0.335607
1763.87	-0.179351
1765.38	0.0377512
1766.89	0.14061
1768.4	0.160517
1769.91	0.061244
1771.41	0.379774
1772.92	0.182518
1774.43	-0.0848312
1775.94	0.129252
1777.45	0.229089
1778.95	-0.343205
1780.46	0.28542
1781.97	0.0774612
1783.48	0.177254
1784.98	-0.271423
1786.49	0.224124
1787.99	0.326461
1789.5	-0.038105
1791.01	-0.0930443
1792.51	-0.0256662
1794.01	-0.0310841
1795.52	0.0865459
1797.02	0.0179319
1798.53	0.00294304
1800.03	0.121499
1801.53	0.191614
1803.04	0.105207
1804.54	0.11289
1806.04	0.0440273
1807.54	-0.200566
1809.05	0.114472
1810.55	-0.138157
1812.05	-0.21863
1813.55	0.173216
1815.05	-0.0533066
1816.55	-0.114753
1818.05	0.0640621
1819.55	0.0495205
1821.05	-0.0564222
1822.55	0.265442
1824.05	-0.0214176
1825.55	0.203051
1827.05	0.00549698
1828.55	-0.0158119
1830.04	-0.0704412
1831.54	-0.0664968
1833.04	0.303387
1834.54	-0.0840759
1836.03	0.0543442
1837.53	0.0750284
1839.03	-0.0657644
1840.52	-0.116601
1842.02	-0.0607815
1843.51	0.346893
1845.01	0.140462
1846.5	-0.0655136
1848	-0.238179
1849.49	0.0601578
1850.99	0.0877342
1852.48	-0.0563164
1853.97	-0.336933
1855.47	0.169764
1856.96	0.252806
1858.45	0.0134926
1859.94	-0.0771561
1861.44	0.0887995
1862.93	0.0986242
1864.42	0.0419149
1865.91	0.313986
1867.4	-0.088975
1868.89	0.0522022
1870.38	-0.0743895
1871.87	0.187438
1873.36	0.189236
1874.85	0.175587
1876.34	0.071888
1877.83	0.0956669
1879.32	0.0377216
1880.81	0.083849
1882.3	0.444102
1882.57	0.526671
1884.07	-0.381518
1885.56	-0.0874357
1887.06	-0.142785
1888.55	-0.424833
1890.04	-0.306222
1891.54	0.26539
1893.03	-0.274484
1894.52	0.248056
1896.02	0.233149
1897.51	0.219048
1899	-0.00394058
1900.49	0.415683
1901.98	0.103039
1903.47	0.275702
1904.96	-0.0225306
1906.45	-0.0258665
1907.94	-0.0292053
1909.43	0.00278091
1910.92	0.278577
1912.41	0.138787
1913.9	0.311793
1915.39	-0.000714302
1916.88	0.10265
1918.37	-0.314521
1919.85	0.325047
1921.34	0.253983
1922.83	-0.543869
1924.32	0.165657
1925.8	-0.179852
1927.29	0.272027
1928.78	-0.0199051
1930.26	-0.156114
1931.75	-0.0333729
1933.23	0.0879354
1934.72	0.0516644
1936.2	0.342502
1937.69	0.199584
1939.17	-0.133638
1940.66	-0.0344439
1942.14	-0.107102
1943.63	-0.00617027
1945.11	0.216225
1946.59	0.00786877
1948.07	-0.0971994
1949.56	0.0727015
1951.04	0.1726
1952.52	-0.0554543
1954	0.0601416
1955.48	0.244253
1956.96	-0.0522919
1958.45	-0.0388861
1959.93	-0.196319
1961.41	-0.147328
1962.89	-0.252457
1964.37	0.00210285
1965.85	0.170311
1967.32	0.269202
1968.8	0.196281
1970.28	-0.0309515
1971.76	0.339679
1973.24	-0.00711441
1974.72	0.0730772
1976.19	0.153341
1977.67	0.182568
1979.15	0.535248
1980.63	0.0199471
1982.1	0.32107
1983.58	-0.193844
1985.05	0.0384789
1986.53	0.202368
1988	0.332108
1989.48	-0.0629692
1990.95	0.338531
1992.43	-0.037487
1993.9	0.29787
1995.38	-0.00838375
1996.85	0.125224
1998.32	0.241808
1999.8	0.205932
2001.27	-0.0836344
2002.74	0.166308
2004.22	-0.106705
2005.69	0.193783
2007.16	0.0736847
2008.63	-0.0285549
2010.1	0.341481
2011.57	0.00493526
2013.04	-0.146345
2014.51	0.00491142
2015.98	0.020752
2017.45	0.00206184
2018.92	0.318795
2020.39	-0.188605
2021.86	0.0768738
2023.33	-0.0436249
2024.8	-0.398132
2026.27	0.120946
2027.74	0.238732
2029.2	0.190276
2030.67	0.00892067
2032.14	0.180819
2033.61	0.235786
2035.07	0.122825
2036.54	0.0430069
2038.01	0.214671
2039.47	0.48687
2040.94	0.0531063
2042.4	-0.145067
2043.87	0.380643
2045.33	0.26823
2046.8	0.00494289
2048.26	0.0617237
2049.72	-0.0334673
2051.19	0.1569
2052.65	0.345845
2054.12	0.060791
2055.58	0.279953
2057.04	0.716802
2058.5	0.17521
2059.97	0.0886965
2061.43	0.0531797
2062.89	0.0521526
2064.35	0.102598
2065.81	0.339127
2067.27	0.374545
2068.73	0.595693
2070.19	-0.00761795
2071.65	0.213907
2073.11	0.0985966
2074.57	0.302946
2076.03	0.372274
2077.49	0.441245
2078.95	0.307734
2080.41	0.291652
2081.87	0.409708
2083.32	0.628045
2084.78	0.307034
2086.24	0.288295
2087.7	0.218521
2089.15	0.282853
2090.61	0.0949726
2092.07	0.14225
2093.52	0.407516
2094.98	0.5213
2096.43	0.0981436
2097.89	0.294566
2099.34	0.640721
2100.8	-0.184515
2102.25	0.595857
2103.71	0.691347
2105.16	0.320748
2106.61	0.569124
2108.07	0.78503
2109.52	0.634312
2110.97	0.716475
2112.43	0.630595
2113.88	0.842811
2115.33	0.40418
2116.78	0.414269
2118.23	0.640615
2119.68	0.386649
2121.13	0.931196
2122.59	0.847105
2124.04	0.897196
2125.49	0.881598
2126.94	0.650173
2128.39	0.915075
2129.83	0.91328
2131.28	0.893597
2132.73	0.707613
2134.18	1.34896
2135.63	1.14725
2137.08	1.01339
2138.53	0.931089
2139.97	1.62751
2141.42	0.639776
2142.87	1.15746
2144.31	1.24608
2145.76	1.55006
2147.21	1.40691
2148.65	1.41204
2150.1	1.38311
2151.54	1.61821
2152.99	1.58717
2154.43	1.38957
2155.88	1.34063
2157.32	1.6728
2158.77	1.50878
2160.21	1.49528
2161.65	1.46706
2163.1	1.73922
2164.54	1.74788
2165.98	1.72425
2167.43	2.09919
2168.87	1.92481
2170.31	1.89796
2171.75	1.30317
2173.19	2.03708
2174.64	1.62169
2176.07	1.80453
2177.52	1.42222
2178.96	1.7391
2180.4	1.791
2181.84	1.22865
2183.28	1.44836
2184.72	1.63516
2186.15	1.42284
2187.59	1.57653
2189.03	1.71369
2190.47	1.61782
2191.91	1.4384
2193.35	1.34138
2194.78	1.74242
2196.22	1.45891
2197.66	1.8889
2199.09	1.40206
2200.53	1.29695
2201.97	1.35788
2203.4	1.71807
2204.84	0.868608
2206.27	1.16461
2207.71	1.17925
2209.14	1.16055
2210.58	0.760383
2212.01	0.60777
2213.45	1.31413
2214.88	1.04487
2216.31	0.875667
2217.75	0.740818
2219.18	0.871186
2220.61	0.969355
2222.05	0.589627
2223.48	0.851943
2224.91	0.832678
2226.34	0.680059
2227.78	0.739739
2229.21	0.880133
2230.64	0.724164
2232.07	0.781361
2233.5	0.462276
2234.93	0.9131
2236.36	0.367778
2237.79	0.200348
2239.22	0.149158
2240.65	0.491386
2242.08	0.835255
2243.5	0.658418
2244.93	0.481901
2246.36	0.908209
2247.79	0.517372
2249.22	0.43435
2250.64	0.626173
2252.07	0.278829
2253.5	0.0451574
2254.92	0.3971
2256.35	0.668731
2257.78	0.212257
2259.2	0.31043
2260.63	0.362761
2262.05	0.0116796
2263.48	0.457561
2264.9	0.432937
2266.33	0.261572
2267.75	0.23566
2269.18	0.3553
2270.6	0.18123
2272.02	0.462511
2273.45	0.646035
2274.87	0.0640993
2276.29	0.899671
2277.71	0.122315
2279.14	0.518397
2280.56	0.376498
2281.98	0.185471
2283.4	0.385829
2284.82	0.700557
2286.24	0.264809
2287.66	0.221045
2289.08	0.292015
2290.5	0.298071
2291.92	0.206315
2293.34	0.425339
2294.76	-0.0263119
2296.18	-0.118318
2297.6	0.264443
2299.02	0.0250368
2300.44	0.293696
2301.86	0.316915
2303.27	0.209182
2304.69	0.265636
2306.11	0.075716
2307.53	-0.410498
2308.94	0.154418
2310.36	0.324539
2311.78	0.346346
2313.19	-0.125482
2314.61	0.143466
2316.02	0.281597
2317.44	0.321766
2318.85	0.181067
2320.27	0.221396
2321.68	0.0626659
2323.1	0.265115
2324.51	0.514833
2325.92	0.630228
2327.34	0.36459
2328.75	0.889562
2330.16	0.557678
2331.58	0.473989
2332.99	0.391481
2334.4	0.276949
2335.81	0.12979
2337.23	0.130263
2338.64	0.327066
2340.05	0.259662
2341.46	0.158574
2342.87	0.237654
2344.28	-0.454156
2345.69	0.100739
2347.1	-0.0163126
2348.51	-0.0186205
2349.92	-0.0540133
2351.33	0.0570145
2352.74	0.232244
2354.15	0.145185
2355.55	-0.00755596
2356.96	0.10023
2358.37	-0.296428
2359.78	0.00648594
2361.19	0.146557
2362.59	0.383593
2364	-0.0763779
2365.41	-0.0662594
2366.81	0.299557
2368.22	0.197041
2369.62	-0.1785
2371.03	-0.310425
2372.44	-0.00599289
2373.84	-0.103495
2375.24	0.20183
2376.65	0.361707
2378.05	-0.283633
2379.46	0.291569
2380.86	0.254179
2382.26	0.103259
2383.67	-0.0962114
2385.07	-0.439342
2386.47	-0.0543709
2387.88	-0.0364571
2389.28	-0.216739
2390.68	-0.0609989
2392.08	0.191138
2393.48	0.189353
2394.89	0.0293369
2396.29	0.219876
2397.69	0.124826
2399.09	-0.06495
2400.49	-0.222407
2401.89	0.462296
2403.29	0.14632
2404.69	0.00474262
2406.09	0.354474
2407.48	0.16357
2408.88	0.162395
2410.28	0.0975142
2411.68	0.207196
2413.08	0.238402
2414.48	0.144181
2415.87	-0.249376
2417.27	-0.182588
2418.67	0.217563
2420.06	0.459818
2421.46	0.337715
2422.86	0.183528
2424.25	0.266711
2425.65	0.34998
2427.04	0.211904
2428.44	0.217298
2429.83	-0.141172
2431.23	0.341658
2432.62	0.190083
2434.02	0.260182
2435.41	0.233909
2436.81	-0.206915
2438.2	0.224648
2439.59	0.368937
2440.99	0.27407
2442.38	0.0200062
2443.77	0.0197554
2445.16	0.130364
2446.56	-0.0604973
2447.95	0.0973177
2449.34	0.144102
2450.73	0.0644007
2452.12	0.317656
2453.51	0.286701
2454.9	0.161675
2456.29	0.195535
2457.68	0.11896
2459.07	0.406012
2460.46	0.312879
2461.85	-0.144652
2463.24	0.582735
2464.63	-0.413069
2466.02	0.0287666
2467.4	0.0912905
2468.79	-0.398522
2470.18	0.137015
2471.57	0.324803
2472.95	0.180901
2474.34	0.0836668
2475.73	-0.139872
2477.12	-0.127643
2478.5	0.120088
2479.89	-0.118855
2481.27	-0.0907154
2482.66	0.187982
2484.04	0.277917
2485.43	0.272989
2486.81	0.110741
2488.2	-0.00537395
2489.58	0.0495291
2490.97	-0.284911
2492.35	0.190269
2493.73	0.572221
2495.12	-0.100067
2496.5	-0.0105362
2497.88	-0.0132809
2499.27	-0.3563
2500.65	-0.204218
2502.03	0.0550833
2503.41	0.220368
2504.79	-0.124532
2506.17	0.116209
2507.56	-0.0439444
2508.94	-0.234361
2510.32	0.205657
2511.7	-0.0603061
2513.08	-0.14111
2514.46	-0.00655746
2515.84	-0.100965
2517.22	0.218469
2518.59	0.0488348
2519.97	0.230985
2521.35	0.168319
2522.73	0.150874
2524.11	-0.172391
2525.49	0.11377
2526.86	-0.103269
2528.24	0.182541
2529.62	-0.00235748
2530.99	0.148808
2532.37	0.438229
2533.75	0.30348
2535.12	-0.104043
2536.5	0.293583
2537.88	0.462635
2539.25	0.630678
2540.63	0.463784
2542	0.0386453
2543.38	-0.0521326
2544.75	0.146149
2546.12	0.0573678
2547.5	-0.27297
2548.87	-0.162661
2550.24	0.296738
2551.62	0.40674
2552.99	-0.0456705
2554.36	0.183868
2555.74	0.518682
2557.11	-0.0269098
2558.48	0.307148
2559.85	0.368426
2561.22	0.475674
2562.59	0.401666
2563.96	0.434317
2565.34	0.0127659
2566.71	0.136986
2568.08	0.352235
2569.45	-0.00841761
2570.82	-0.0053401
2572.18	0.0432463
2573.55	0.243507
2574.92	0.231645
2576.29	-0.0985689
2577.66	0.132089
2579.03	0.317075
2580.4	0.66852
2581.77	0.352394
2583.13	-0.100512
2584.5	-0.113909
2585.87	0.145496
2587.23	0.116989
2588.6	-0.0780463
2589.97	-0.227493
2591.33	0.0927153
2592.7	-0.0572896
2594.06	0.291898
2595.43	0.382469
2596.79	0.138975
2598.16	-0.0142498
2599.52	0.0893817
2600.89	0.0267949
2602.25	0.206381
2603.62	0.16001
2604.98	0.521616
2606.34	0.0233397
2607.71	0.0377798
2609.07	0.0514069
2610.43	0.214495
2611.79	0.255694
2613.16	0.265646
2614.52	-0.0706301
2615.88	0.118732
2617.24	-0.00684357
2618.6	-0.0267763
2619.96	0.0887122
2621.32	-0.228898
2622.68	0.35092
2624.04	0.467287
2625.4	-0.147737
2626.76	0.251827
2628.12	0.143882
2629.48	-0.142857
2630.84	0.0169873
2632.2	0.102149
2633.56	0.380223
2634.92	0.212576
2636.28	0.267615
2637.63	-0.314604
2638.99	0.214595
2640.35	0.0773702
2641.71	0.058866
2643.06	0.350873
2644.42	0.140709
2645.77	0.0192666
2647.13	0.0597639
2648.49	0.129008
2649.84	0.197359
2651.2	-0.146678
2652.55	-0.16721
2653.91	0.135268
2655.26	0.0128298
2656.62	-0.020503
2657.97	0.0643668
2659.33	0.427902
2660.68	0.367432
2662.03	-0.0584803
2663.39	0.391843
2664.74	0.40294
2666.09	0.457047
2667.44	0.0297031
2668.8	0.0980587
2670.15	0.486657
2671.5	0.0755424
2672.85	0.0433564
2674.2	0.040832
2675.55	0.213018
2676.91	0.414608
2678.26	0.225099
2679.61	-0.00699615
2680.96	0.254895
2682.31	0.0974507
2683.66	0.303607
2685	0.0030899
2686.35	0.544381
2687.7	0.0552783
2689.05	0.319731
2690.4	0.0745111
2691.75	0.0598826
2693.1	-0.0721984
2694.44	-0.060019
2695.79	0.154896
2697.14	0.500559
2698.49	0.0652523
2699.83	0.0950322
2701.18	0.358123
2702.52	0.173708
2703.87	0.221992
2705.22	0.241796
2706.56	0.27617
2707.91	-0.0959945
2709.25	0.0682817
2710.6	-0.0145402
2711.94	0.0185518
2713.29	0.545598
2714.63	0.30251
2715.97	0.0155892
2717.32	0.281045
2718.66	0.313637
2720.01	0.476846
2721.35	0.465031
2722.69	0.219865
2724.03	0.265325
2725.38	0.0483751
2726.72	0.194959
2728.06	0.210244
2729.4	0.123435
2730.74	0.240218
2732.08	0.531526
2733.42	0.386444
2734.76	0.227016
2736.1	0.460502
2737.44	-0.178543
2738.78	0.244095
2740.12	0.157469
2741.46	0.37575
2742.8	-0.148045
2744.14	0.199752
2745.48	-0.106986
2746.82	-0.0217972
2748.16	-0.169084
2749.49	0.713916
2750.83	0.305626
2752.17	0.347316
2753.51	0.360211
2754.84	0.199407
2756.18	0.169178
2757.52	0.124644
2758.85	0.268562
2760.19	0.485147
2761.53	0.210122
2762.86	0.152648
2764.2	-0.179445
2765.53	0.240821
2766.87	0.00956917
2768.2	0.283766
2769.54	0.252945
2770.87	0.336382
2772.2	0.259569
2773.54	-0.0056777
2774.87	-0.22771
2776.2	-0.434972
2777.54	-0.339346
2778.87	0.0585799
2780.2	0.269591
2781.53	-0.22304
2782.87	0.13175
2784.2	0.0127535
2785.53	0.0658741
2786.86	0.248015
2788.19	0.315903
2789.52	0.155551
2790.85	0.210706
2792.18	0.36664
2793.51	-0.191823
2794.84	-0.278384
2796.17	-0.0651584
2797.5	0.0474563
2798.83	0.216585
2800.16	0.171099
2801.49	0.382167
2802.82	0.222139
2804.15	-0.0662336
2805.47	0.471343
2806.8	0.110996
2808.13	0.191453
2809.46	-0.0128269
2810.78	0.308666
2812.11	0.147798
2813.44	0.257674
2814.76	0.340468
2816.09	0.226144
2817.42	0.424712
2818.74	-0.0139995
2820.07	0.0575318
2821.39	0.142812
2822.72	0.284134
2824.04	0.0281191
2825.37	0.15435
2826.69	0.323048
2828.02	0.36474
2829.34	0.378645
2830.66	0.392988
2831.99	0.3509
2833.31	0.379524
2834.63	0.195528
2835.96	0.322455
2837.28	0.646926
2838.6	0.504031
2839.92	0.247889
2841.24	0.430262
2842.57	0.740152
2843.89	0.45696
2845.21	0.499522
2846.53	0.994873
2847.85	0.543662
2849.17	1.15246
2850.49	1.28045
2851.81	1.18181
2853.13	1.30882
2854.45	1.1387
2855.77	1.1945
2857.09	1.03839
2858.41	1.44734
2859.72	1.5737
2861.04	1.24802
2862.36	1.58566
2863.68	1.01952
2865	1.38469
2866.31	2.00356
2867.63	1.83261
2868.95	2.15566
2870.26	1.95736
2871.58	2.16804
2872.9	2.02605
2874.21	2.53154
2875.53	2.38778
2876.84	2.46835
2878.16	1.81637
2879.47	2.43054
2880.79	2.38374
2882.1	1.95844
2883.42	2.55966
2884.73	2.36112
2886.05	2.59839
2887.36	2.3865
2888.67	2.20233
2889.99	2.43835
2891.3	2.61732
2892.61	2.23496
2893.92	2.52522
2895.24	2.43752
2896.55	2.72856
2897.86	2.93646
2899.17	2.97736
2900.48	2.73922
2901.79	2.87923
2903.11	3.20126
2904.42	2.90794
2905.73	3.11844
2907.04	3.23157
2908.35	3.42942
2909.66	3.64212
2910.97	3.51958
2912.27	3.35495
2913.58	3.10553
2914.89	3.8488
2916.2	3.83442
2917.51	4.02846
2918.82	4.13751
2920.13	4.20439
2921.43	4.202
2922.74	3.80939
2924.05	4.60631
2925.35	4.63548
2926.66	4.73514
2927.97	4.723
2929.27	4.73842
2930.58	5.04688
2931.89	4.82362
2933.19	5.06143
2934.5	4.94975
2935.8	5.11771
2937.11	4.78273
2938.41	5.09076
2939.72	4.90997
2941.02	4.40831
2942.32	4.48038
2943.63	4.41388
2944.93	4.29274
2946.24	4.21459
2947.54	4.31884
2948.84	4.07298
2950.14	3.92383
2951.45	3.53487
2952.75	3.78821
2954.05	3.71818
2955.35	3.70381
2956.65	3.3964
2957.95	3.7908
2959.26	3.6139
2960.56	3.38348
2961.86	3.02851
2963.16	3.1086
2964.46	3.42692
2965.76	3.26665
2967.06	2.86573
2968.36	3.0678
2969.66	3.0724
2970.96	2.92218
2972.25	3.08168
2973.55	2.9742
2974.85	2.43025
2976.15	2.71613
2977.45	2.19825
2978.74	2.69254
2980.04	2.28411
2981.34	2.14205
2982.64	1.85895
2983.93	2.30747
2985.23	1.98372
2986.52	1.95663
2987.82	1.87469
2989.12	1.6672
2990.41	1.488
2991.71	1.51913
2993	1.22605
2994.3	1.32531
2995.59	1.07233
2996.89	0.861003
2998.18	1.22502
2999.48	1.15411
3000.77	0.971577
3002.06	1.15413
3003.36	0.930594
3004.65	0.707267
3005.94	0.875917
3007.23	0.525932
3008.53	0.777097
3009.82	0.188222
3011.11	0.703251
3012.4	0.421331
3013.69	0.530451
3014.99	0.165837
3016.28	0.331704
3017.57	0.386652
3018.86	0.163709
3020.15	0.386074
3021.44	0.42707
3022.73	0.175554
3024.02	0.0622988
3025.31	0.198112
3026.6	0.167266
3027.89	0.23378
3029.18	0.0523472
3030.46	0.135033
3031.75	0.246578
3033.04	0.289953
3034.33	0.126564
3035.62	0.514564
3036.9	0.390796
3038.19	0.251726
3039.48	0.413891
3040.76	0.656656
3042.05	0.37635
3043.34	0.562762
3044.62	0.4347
3045.91	0.376883
3047.19	0.143658
3048.48	0.00848675
3049.77	0.530449
3051.05	0.494176
3052.34	0.663355
3053.62	0.341304
3054.9	0.427958
3056.19	0.486302
3057.47	0.448131
3058.76	0.58635
3060.04	0.220383
3061.32	0.481147
3062.61	0.334527
3063.89	0.474853
3065.17	0.412664
3066.45	0.392576
3067.74	0.155856
3069.02	0.340985
3070.3	0.0226769
3071.58	0.261169
3072.86	0.267304
3074.14	0.149927
3075.42	0.330709
3076.7	0.293735
3077.99	0.0943155
3079.26	-0.131072
3080.54	0.133354
3081.82	0.331328
3083.1	-0.174968
3084.38	0.296157
3085.66	0.27892
3086.94	-0.0373583
3088.22	0.378624
3089.5	0.210313
3090.78	0.231591
3092.05	-0.140696
3093.33	0.233306
3094.61	-0.274021
3095.89	-0.401283
3097.16	-0.0810757
3098.44	0.211843
3099.72	0.0844498
3100.99	0.363421
3102.27	0.195404
3103.54	-0.0128736
3104.82	0.347907
3106.1	0.0731916
3107.37	-0.011167
3108.65	0.203158
3109.92	0.161347
3111.2	0.188127
3112.47	-0.041749
3113.74	0.257076
3115.02	0.000299454
3116.29	0.420943
3117.56	0.230608
3118.84	0.310483
3120.11	0.145196
3121.38	0.128259
3122.66	0.327611
3123.93	0.147355
3125.2	0.509009
3126.47	0.180557
3127.74	0.353451
3129.01	0.120962
3130.29	0.226969
3131.56	0.333007
3132.83	0.438831
3134.1	0.193035
3135.37	0.149492
3136.64	0.253877
3137.91	0.236316
3139.18	0.272308
3140.45	0.21389
3141.72	0.222871
3142.99	0.782965
3144.26	0.37602
3145.52	0.13127
3146.79	0.4639
3148.06	0.635965
3149.33	0.406719
