200.523	0.414906
202.339	0.425364
204.154	0.436867
205.967	0.425057
207.781	0.170537
209.596	-0.0597744
211.409	0.46219
213.222	0.812589
215.034	0.749304
216.848	0.734203
218.659	0.11386
220.47	0.293752
222.281	-0.057744
224.091	-0.262892
225.903	0.378585
227.713	0.198379
229.522	0.670038
231.331	0.827131
233.14	0.260234
234.948	-0.209233
236.756	-0.0985956
238.566	0.11039
240.373	-0.32911
242.18	0.149527
243.986	0.0749826
245.792	0.0969276
247.598	0.045145
249.403	0.280789
251.208	-0.186469
253.013	0.068244
254.818	0.466027
256.624	0.0434427
258.427	0.0799837
260.231	-0.219188
262.034	-0.29967
263.836	0.801844
265.638	0.796346
267.44	0.140538
269.242	0.496693
271.043	0.29778
272.844	0.097846
274.645	0.451237
276.445	-0.402148
278.245	0.18921
280.044	0.39296
281.843	0.0170164
283.642	0.000764847
285.44	0.00736713
287.238	0.301345
289.036	0.0673542
290.833	0.122018
292.63	-0.229033
294.425	-0.0519295
296.221	-0.351791
298.017	0.162165
299.813	0.27013
301.608	0.497334
303.403	0.699768
305.198	-0.149097
306.992	0.0515852
308.786	0.108895
310.579	0.452628
312.371	0.678166
314.163	0.000404358
315.956	-0.104021
317.748	0.483842
319.54	0.0967302
321.331	-0.0035677
323.122	0.302196
324.911	0.131494
326.701	0.390547
328.491	-0.401526
330.281	0.884785
332.071	-0.148717
333.857	-0.107874
335.646	0.385832
337.434	0.566432
339.222	-0.498942
341.008	0.252512
342.795	0.142154
344.582	-0.111457
346.369	0.519346
348.153	-0.162841
349.939	-0.342875
351.724	0.45578
353.51	0.0843592
355.292	-0.430899
357.077	1.10364
358.861	0.919625
360.643	1.23482
362.426	0.549276
364.21	-0.088336
365.99	-0.0840874
367.773	-0.080514
369.555	0.0171499
371.335	-0.0756178
373.116	0.682919
374.897	-0.0966015
376.676	0.235142
378.456	0.11868
380.236	-0.467818
382.014	-0.416759
383.793	0.270393
385.57	0.06462
387.349	-0.069334
389.127	0.0562162
390.903	0.229571
392.681	0.35669
394.456	-0.361052
396.233	0.729868
398.007	0.129981
399.784	0.610324
401.56	-0.201542
403.333	0.0664701
405.108	0.0284967
406.881	-0.338877
408.656	-0.213588
410.428	0.239991
412.202	0.364895
413.973	-0.331104
415.746	0.287617
417.517	0.531643
419.29	-0.209291
421.06	0.551915
422.831	0.0455217
424.601	-0.461616
426.37	0.955497
428.141	0.165097
429.909	0.102054
431.679	-0.0783272
433.447	-0.0237093
435.216	-0.109597
436.983	-0.0312262
438.75	0.304675
440.519	0.404535
442.285	0.174094
444.052	-0.292486
445.818	-0.127572
447.583	0.433911
449.349	0.713403
451.114	0.104743
452.878	-0.152434
454.643	-0.292375
456.407	0.639961
458.169	0.0570087
459.934	0.0102396
461.696	0.382726
463.458	0.523801
465.222	0.0629015
466.983	0.696736
468.744	-0.0612974
470.507	0.181659
472.267	-0.43561
474.027	0.0866289
475.787	0.0021925
477.548	0.4749
479.307	0.829501
481.065	0.670715
482.823	0.581992
484.583	0.471099
486.341	0.38524
488.098	0.0215416
489.855	0.475565
491.612	0.277598
493.37	0.593923
495.126	0.583571
496.881	0.432648
498.636	0.468616
500.391	-0.199341
502.148	0.32804
503.902	-0.248559
505.656	0.465777
507.409	0.0744076
509.162	0.481175
510.915	0.34552
512.668	0.773138
514.42	0.0463953
516.174	0.471357
517.925	0.636302
519.676	0.565121
521.427	0.493303
523.178	-0.0485439
524.928	1.02946
526.678	0.346931
528.427	0.720199
530.176	0.952367
531.925	-0.10427
533.673	0.524881
535.422	0.660915
537.169	0.117732
538.917	0.858307
540.664	0.0338192
542.411	0.351802
544.157	0.459307
545.903	0.148293
547.649	0.047039
549.395	0.201211
551.14	0.00789642
552.884	0.624691
554.629	-0.0535555
556.373	0.308505
558.117	0.43959
559.86	0.294419
561.603	0.679427
563.346	0.213312
565.089	0.483908
566.831	0.134534
568.573	-0.0300722
570.314	0.448922
572.053	0.194711
573.794	0.194374
575.534	0.0808868
577.274	0.496588
579.014	-0.142246
580.754	0.436267
582.493	0.234118
584.23	-0.313594
585.968	0.356304
587.706	0.0592833
589.444	0.0831852
591.181	-0.215839
592.919	-0.0551739
594.653	0.0363207
596.39	-0.01021
598.126	-0.217837
599.862	0.218383
601.595	0.515757
603.33	-0.269043
605.065	0.324735
606.8	-0.553721
608.532	0.382242
610.266	-0.0370703
611.999	-0.363755
613.732	0.067112
615.463	0.154415
617.196	-0.216432
618.928	0.236979
620.66	0.093873
622.389	0.13284
624.12	0.308143
625.851	0.231928
627.58	-0.459635
629.31	0.106195
631.04	-0.0107632
632.767	0.809612
634.497	0.0791397
636.223	0.306839
637.952	0.213425
639.68	-0.0649223
641.406	0.407081
643.134	0.671131
644.861	-0.022644
646.586	0.0357838
648.312	-0.358884
650.037	0.408271
651.762	0.133335
653.486	0.134414
655.211	0.502321
656.936	0.2353
658.659	-0.0086956
660.383	0.773241
662.105	0.801483
663.829	0.164856
665.55	0.988653
667.273	0.393355
668.994	0.368954
670.716	0.43672
672.436	0.16294
674.158	0.829903
675.877	0.835101
677.598	0.841435
679.317	0.595211
681.035	0.577483
682.755	0.811173
684.473	0.743932
686.192	0.306338
687.909	0.581128
689.628	1.03928
691.344	1.15126
693.06	1.03228
694.778	0.636193
696.493	0.653811
698.211	0.992593
699.925	0.800711
701.64	0.975899
703.356	0.7133
705.07	0.404473
706.783	0.715243
708.498	0.727019
710.211	0.990453
711.924	0.955483
713.638	1.21759
715.35	1.09056
717.061	0.507081
718.774	0.791492
720.485	0.870437
722.196	1.29093
723.906	1.05094
725.618	1.12946
727.328	0.88959
729.037	0.445533
730.746	1.54342
732.456	1.27994
734.165	1.24305
735.873	1.59049
737.58	1.28279
739.289	1.11162
740.997	1.415
742.703	0.660362
744.41	1.07851
746.116	1.20497
747.823	1.42259
749.529	0.899102
751.234	0.691748
752.938	1.61018
754.643	1.02281
756.347	1.38168
758.051	1.58466
759.756	1.47379
761.459	1.13834
763.162	1.00591
764.865	1.25688
766.567	0.851874
768.269	1.62029
769.97	1.46012
771.671	1.99902
773.372	1.60945
775.073	1.53604
776.773	1.89274
778.473	1.30099
780.174	1.86387
781.874	1.36476
783.573	1.40858
785.271	2.01727
786.97	1.60513
788.668	1.91435
790.365	1.79042
792.063	2.0935
793.76	1.87519
795.456	1.97283
797.153	1.25984
798.847	2.0133
800.543	1.77716
802.238	2.03751
803.933	1.39871
805.628	1.74935
807.322	1.98653
809.017	1.54865
810.71	2.09759
812.404	1.88244
814.097	2.07037
815.79	1.27275
817.483	2.26576
819.173	1.7375
820.865	1.50054
822.556	1.55434
824.248	2.32226
825.939	1.46394
827.629	1.32118
829.318	1.73771
831.008	2.1793
832.697	1.9777
834.387	1.77791
836.076	1.48958
837.765	2.02647
839.451	1.64729
841.139	1.69072
842.827	0.99563
844.514	1.41715
846.2	1.4148
847.886	1.30226
849.573	1.68404
851.259	1.0386
852.943	1.64891
854.629	1.4535
856.314	1.61689
857.997	1.46475
859.682	1.26579
861.366	1.15496
863.05	1.1777
864.732	0.658421
866.415	1.26517
868.098	1.35303
869.779	0.854098
871.461	1.7307
873.141	1.0958
874.823	1.29551
876.505	1.29216
878.184	0.85998
879.865	0.608162
881.545	1.32668
883.223	0.644918
884.903	1.20378
886.581	1.01642
888.26	1.12102
889.937	1.04369
891.616	1.28059
893.294	1.29073
894.97	1.07476
896.648	0.925619
898.323	0.686052
900	1.43307
901.675	0.990237
903.351	1.12971
905.026	1.00049
906.701	0.67092
908.375	1.27901
910.05	1.12937
911.723	1.60374
913.398	0.766588
915.07	0.863866
916.742	1.20499
918.415	0.503801
920.087	0.822501
921.76	0.787168
923.43	1.15078
925.103	1.2282
926.773	1.08645
928.443	0.526983
930.114	0.961875
931.783	0.757373
933.454	0.244315
935.123	0.9888
936.791	0.829252
938.461	1.31008
940.128	1.28478
941.796	1.12823
943.464	1.1488
945.131	1.14714
946.797	0.460095
948.465	0.433583
950.131	0.537842
951.797	1.19253
953.462	0.744149
955.128	0.628162
956.793	0.470543
958.457	1.48485
960.121	0.714858
961.786	0.519511
963.45	1.34057
965.113	0.811855
966.775	0.612107
968.44	0.675305
970.102	1.3782
971.763	0.576003
973.425	0.836037
975.086	0.456046
976.748	0.365129
978.409	0.894889
980.069	0.617825
981.729	0.340219
983.388	0.603686
985.048	0.555511
986.708	0.881733
988.367	1.007
990.025	0.777197
991.683	0.392359
993.341	1.06797
994.998	0.572971
996.655	0.475739
998.312	1.61329
999.969	1.22884
1001.62	1.68127
1003.28	0.636267
1004.94	0.801881
1006.59	0.681468
1008.25	0.583305
1009.9	-0.0191278
1011.56	-0.159871
1013.21	-0.0370741
1014.86	0.786799
1016.52	0.646914
1018.17	0.354485
1019.82	0.325488
1021.48	0.450473
1023.13	0.182931
1024.78	0.0256014
1026.43	0.283983
1028.08	0.258266
1029.73	0.799973
1031.38	0.641427
1033.03	0.787148
1034.68	1.06209
1036.33	-0.125317
1037.98	0.213264
1039.63	0.355346
1041.28	0.302056
1042.93	-0.162992
1044.57	0.0257444
1046.22	0.0422392
1047.87	0.212377
1049.52	0.166754
1051.16	0.23082
1052.81	0.686664
1054.45	0.947467
1056.1	0.512863
1057.75	0.990858
1059.39	0.772789
1061.04	-0.0982599
1062.68	0.225892
1064.32	0.244802
1065.97	0.458435
1067.61	-0.133141
1069.25	0.361101
1070.9	0.137748
1072.54	0.435435
1074.18	0.386163
1075.82	-0.00918102
1077.47	0.117297
1079.11	0.288196
1080.75	0.481429
1082.39	0.652944
1084.03	0.411646
1085.67	0.277345
1087.31	0.704649
1088.95	0.176843
1090.59	0.362217
1092.22	0.459764
1093.86	0.27594
1095.5	0.459416
1097.14	0.147534
1098.78	0.182004
1100.41	0.045784
1102.05	0.0835133
1103.69	0.746639
1105.32	0.894502
1106.96	0.698736
1108.59	0.115621
1110.23	0.155233
1111.86	-0.10746
1113.5	0.165699
1115.13	0.523313
1116.77	-0.0639734
1118.4	0.442962
1120.03	0.585656
1121.67	0.472178
1123.3	0.509614
1124.93	1.01861
1126.56	0.266195
1128.19	0.370226
1129.83	0.261054
1131.46	0.237948
1133.09	0.514391
1134.72	0.64103
1136.35	0.360957
1137.98	0.443277
1139.61	0.567152
1141.24	0.198969
1142.86	-0.404016
1144.49	-0.21715
1146.12	-0.370935
1147.75	0.200782
1149.38	0.0698681
1151	-0.103151
1152.63	0.554401
1154.26	0.253291
1155.88	0.164821
1157.51	-0.476857
1159.14	0.285953
1160.76	0.241114
1162.39	0.0909986
1164.01	0.00559044
1165.63	0.749842
1167.26	0.38822
1168.88	0.344538
1170.51	0.426834
1172.13	0.0611506
1173.75	0.501039
1175.38	0.13303
1177	-0.171272
1178.62	0.054637
1180.24	0.175005
1181.86	0.169118
1183.48	0.967196
1185.1	0.116311
1186.72	0.131325
1188.34	0.271413
1189.96	0.135456
1191.58	0.0612354
1193.2	0.700654
1194.82	0.413834
1196.44	0.421371
1198.06	0.178531
1199.68	0.0424452
1201.29	0.702719
1202.91	0.779869
1204.53	0.880301
1206.14	0.732353
1207.76	0.710874
1209.38	0.898235
1210.99	0.834474
1212.61	0.956726
1214.22	0.764149
1215.84	0.507234
1217.45	0.249083
1219.07	0.697051
1220.68	0.562781
1222.29	0.90641
1223.91	1.18847
1225.52	1.67863
1227.13	1.17649
1228.74	0.841737
1230.36	1.19076
1231.97	1.52009
1233.58	1.76788
1235.19	1.60357
1236.8	1.81254
1238.41	1.07165
1240.02	0.620583
1241.63	1.47255
1243.24	1.31085
1244.85	1.62424
1246.46	1.48141
1248.07	1.48242
1249.67	1.52406
1251.28	1.50334
1252.89	1.2967
1254.5	1.73202
1256.1	1.67203
1257.71	1.5926
1259.32	1.94888
1260.92	1.49898
1262.53	1.87756
1264.13	1.77997
1265.74	1.16383
1267.34	1.9976
1268.95	1.56609
1270.55	1.32004
1272.15	2.13036
1273.76	1.61267
1275.36	1.25997
1276.97	1.61107
1278.57	2.16827
1280.17	1.64769
1281.77	1.89305
1283.37	2.11762
1284.97	0.791677
1286.58	1.96889
1288.18	1.32778
1289.78	1.94838
1291.38	2.21808
1292.98	2.57026
1294.58	1.92996
1296.18	2.44511
1297.78	2.1118
1299.37	1.67395
1300.97	2.03915
1302.57	2.11413
1304.17	2.33203
1305.77	2.26092
1307.36	2.49748
1308.96	2.61014
1310.55	2.72257
1312.15	2.56907
1313.75	2.27356
1315.34	2.0614
1316.94	2.23849
1318.53	2.21189
1320.13	2.49096
1321.72	2.21865
1323.32	2.29111
1324.91	2.52418
1326.5	2.45069
1328.1	3.39044
1329.69	2.74921
1331.28	2.67757
1332.87	2.8914
1334.47	2.31997
1336.06	2.55814
1337.65	3.0588
1339.24	2.20767
1340.83	2.88661
1342.42	3.13947
1344.01	2.70617
1345.6	2.35302
1347.19	2.38188
1348.78	2.53272
1350.37	1.9855
1351.96	2.62176
1353.54	2.51991
1355.13	2.05977
1356.72	2.13976
1358.31	2.55884
1359.89	1.95821
1361.48	2.45472
1363.07	2.23172
1364.65	1.7096
1366.24	2.12477
1367.82	2.00269
1369.41	1.94173
1370.99	1.52408
1372.58	1.84422
1374.16	2.6629
1375.75	2.14914
1377.33	1.85432
1378.91	0.862514
1380.5	1.18304
1382.08	1.64145
1383.66	1.5216
1385.25	1.69901
1386.83	1.81621
1388.41	1.41718
1389.99	0.741302
1391.57	1.27717
1393.15	1.73415
1394.73	1.14014
1396.31	1.37901
1397.89	1.24042
1399.47	1.53687
1401.05	1.69346
1402.63	1.75035
1404.21	1.54998
1405.78	1.13287
1407.36	1.07274
1408.94	2.53485
1410.52	1.23129
1412.1	1.50815
1413.67	1.2118
1415.25	0.993721
1416.82	1.3075
1418.4	1.52203
1419.98	1.55941
1421.55	1.53878
1423.13	0.633951
1424.7	1.22685
1426.28	1.56503
1427.85	1.64787
1429.42	1.53359
1431	1.61524
1432.57	1.32183
1434.14	2.01126
1435.71	2.01152
1437.29	1.91371
1438.86	2.3671
1440.43	1.91734
1442	2.39232
1443.57	1.964
1445.14	1.87016
1446.71	2.03203
1448.28	2.25307
1449.85	2.27786
1451.42	2.00822
1452.99	1.99471
1454.56	1.66682
1456.13	2.5193
1457.7	1.79707
1459.26	1.7622
1460.83	1.92239
1462.4	1.51011
1463.97	1.50948
1465.54	1.64537
1467.1	1.89864
1468.67	1.20965
1470.23	1.2483
1471.8	1.18992
1473.36	1.30912
1474.93	1.88004
1476.49	0.863078
1478.06	1.94415
1479.62	1.78997
1481.19	1.00855
1482.75	1.10912
1484.31	0.93521
1485.88	1.07446
1487.44	0.80162
1489	1.58485
1490.56	1.60237
1492.13	1.05067
1493.69	0.927537
1495.25	0.744431
1496.81	0.950442
1498.37	0.727639
1499.93	0.700282
1501.49	0.829313
1503.05	0.707096
1504.61	1.01218
1506.17	0.639462
1507.73	1.05971
1509.28	0.628114
1510.84	0.427941
1512.4	0.59361
1513.96	0.912466
1515.52	0.711746
1517.07	0.742471
1518.63	0.716346
1520.19	0.863242
1521.74	0.359469
1523.3	0.50631
1524.85	1.09115
1526.41	0.910929
1527.96	1.13012
1529.52	1.32918
1531.07	0.730244
1532.63	1.25213
1534.18	1.77353
1535.73	1.12212
1537.29	0.964338
1538.84	1.56251
1540.39	1.21712
1541.94	1.34342
1543.5	1.03653
1545.05	1.35047
1546.6	1.2316
1548.15	1.69443
1549.7	1.65023
1551.25	1.41909
1552.8	1.89975
1554.35	1.96938
1555.9	1.48011
1557.45	1.42257
1559	1.72156
1560.55	1.3321
1562.1	2.10091
1563.65	1.75156
1565.19	2.01845
1566.74	2.71474
1568.29	1.86183
1569.83	2.40828
1571.38	2.0584
1572.93	2.60421
1574.47	2.55254
1576.02	1.86619
1577.56	2.28148
1579.11	3.07066
1580.66	2.94578
1582.2	2.80307
1583.74	3.07222
1585.29	2.29583
1586.83	2.64114
1588.38	2.83726
1589.92	2.30351
1591.46	2.91076
1593.01	2.18841
1594.55	2.08343
1596.09	2.89653
1597.63	2.6048
1599.17	3.10109
1600.71	2.24795
1602.25	2.3329
1603.79	2.79346
1605.34	2.99069
1606.88	2.64152
1608.41	2.44043
1609.95	1.8046
1611.49	1.91824
1613.03	1.87956
1614.57	2.1399
1616.11	2.79335
1617.65	2.43436
1619.18	2.07703
1620.72	2.11484
1622.26	1.62978
1623.79	2.15664
1625.33	2.36514
1626.87	1.76802
1628.4	2.2737
1629.94	1.95474
1631.48	1.37341
1633.01	1.80098
1634.55	2.11637
1636.08	2.09644
1637.61	1.79773
1639.15	2.15238
1640.68	1.85451
1642.21	1.77978
1643.75	1.48058
1645.28	1.90626
1646.81	1.847
1648.34	2.23347
1649.88	2.21131
1651.41	2.37578
1652.94	1.52128
1654.47	1.6327
1656	1.89292
1657.53	1.76379
1659.06	2.3748
1660.59	1.85469
1662.12	1.81473
1663.65	1.68127
1665.18	2.30472
1666.71	1.82028
1668.24	1.65117
1669.76	1.48374
1671.29	1.29947
1672.82	1.15322
1674.35	2.22284
1675.87	1.45064
1677.4	1.34067
1678.93	1.10097
1680.45	1.50401
1681.98	1.226
1683.5	1.27856
1685.03	1.09258
1686.55	0.7788
1688.08	0.814035
1689.6	0.776318
1691.13	1.03181
1692.65	0.774709
1694.17	1.08482
1695.7	1.06538
1697.22	0.186961
1698.74	0.843127
1700.27	1.06011
1701.79	0.82038
1703.31	0.434651
1704.83	0.358564
1706.35	0.13664
1707.87	0.860125
1709.39	0.565166
1710.91	0.198212
1712.43	0.901813
1713.95	0.245625
1715.47	0.242245
1716.99	0.0941038
1718.51	0.452106
1720.03	0.0871706
1721.55	0.552922
1723.07	0.27931
1724.58	0.205165
1726.1	0.222313
1727.62	0.186629
1729.13	-0.0281258
1730.65	-0.062068
1732.17	0.0640354
1733.68	-0.0952463
1735.2	-0.0785513
1736.72	0.222714
1738.23	0.591608
1739.74	0.430257
1741.26	0.40566
1742.77	0.314489
1744.29	0.178001
1745.8	0.259209
1747.32	0.150439
1748.83	-0.0344639
1750.34	0.192341
1751.85	0.230935
1753.37	-0.141763
1754.88	-0.0951633
1756.39	0.253085
1757.9	0.166149
1759.41	0.084074
1760.92	-0.00487709
1762.44	-0.0739288
1763.95	-0.0861092
1765.46	-0.132722
1766.96	0.138965
1768.47	-0.477036
1769.98	0.12848
1771.49	0.0879593
1773	-0.15174
1774.51	-0.0823183
1776.02	0.0921097
1777.53	0.162949
1779.03	-0.0967236
1780.54	0.105849
1782.05	-0.0813932
1783.55	0.0342808
1785.06	0.0523567
1786.57	0.124181
1788.07	0.130097
1789.58	-0.191161
1791.08	-0.177
1792.59	0.125815
1794.09	0.00232029
1795.6	0.0601807
1797.1	0.301518
1798.61	-0.0939384
1800.11	0.0554123
1801.61	0.275249
1803.12	0.0115833
1804.62	-0.0298672
1806.12	0.0942965
1807.62	0.0837164
1809.12	0.00660038
1810.63	-0.175386
1812.13	-0.0391035
1813.63	-0.0346775
1815.13	-0.000508308
1816.63	0.0588093
1818.13	0.156483
1819.63	-0.161551
1821.13	0.150927
1822.63	0.00489235
1824.13	-0.15709
1825.63	0.0850153
1827.13	-0.0390968
1828.62	-0.10628
1830.12	0.275688
1831.62	0.236121
1833.12	0.16915
1834.61	-0.0466852
1836.11	0.067863
1837.61	0.0989466
1839.1	0.0804739
1840.6	0.0589619
1842.09	0.200522
1843.59	0.197701
1845.09	-0.179612
1846.58	0.168997
1848.08	-0.0329075
1849.57	0.0582476
1851.06	0.239448
1852.56	0.0353789
1854.05	0.15521
1855.54	0.21585
1857.04	0.00259161
1858.53	0.0780349
1860.02	-0.0512652
1861.51	-0.00212383
1863.01	0.0894938
1864.5	0.123227
1865.99	0.123589
1867.48	-0.0336413
1868.97	0.235357
1870.46	-0.229973
1871.95	0.0290217
1873.44	0.450431
1874.93	0.393714
1876.42	0.416828
1877.91	0.690173
1879.4	0.470094
1880.89	0.179092
1882.37	0.00551701
1882.46	-0.00438738
1883.95	0.239779
1885.45	0.378531
1886.94	-0.162912
1888.43	0.37505
1889.93	0.338403
1891.42	0.128716
1892.91	0.111784
1894.41	-0.216526
1895.9	0.830068
1897.39	0.46911
1898.88	0.508026
1900.37	-0.0628219
1901.86	0.269533
1903.36	-0.147597
1904.85	0.26875
1906.34	0.197486
1907.83	0.26516
1909.32	0.229126
1910.81	0.263331
1912.29	-0.0659823
1913.78	0.0215855
1915.27	0.161233
1916.76	-0.340921
1918.25	0.162001
1919.74	0.456302
1921.23	0.594414
1922.71	0.29988
1924.2	0.0927997
1925.69	0.181026
1927.17	0.408673
1928.66	0.100206
1930.15	-0.000545502
1931.63	-0.257821
1933.12	0.00321579
1934.6	-0.516294
1936.09	-0.0159378
1937.57	0.171597
1939.06	0.133824
1940.54	-0.249033
1942.02	0.0423036
1943.51	0.334232
1944.99	0.368034
1946.47	0.00566292
1947.96	0.315451
1949.44	0.0903454
1950.92	0.00233936
1952.4	0.171749
1953.88	0.306034
1955.37	0.0448012
1956.85	-0.198605
1958.33	0.348332
1959.81	0.483616
1961.29	0.482093
1962.77	0.497898
1964.25	0.290804
1965.73	-0.0706649
1967.21	-0.244067
1968.69	0.420329
1970.16	0.0919166
1971.64	0.190745
1973.12	0.169884
1974.6	-0.00438309
1976.08	0.0433121
1977.55	0.482842
1979.03	0.479303
1980.51	-0.00054884
1981.98	0.234043
1983.46	0.281199
1984.94	0.718382
1986.41	0.20486
1987.89	0.285266
1989.36	-0.0575705
1990.84	0.243702
1992.31	0.224034
1993.79	0.255961
1995.26	0.00128078
1996.73	-0.472473
1998.21	0.0673742
1999.68	-0.0519199
2001.15	0.0140009
2002.63	0.028831
2004.1	0.262662
2005.57	0.125824
2007.04	0.663455
2008.51	0.123878
2009.99	0.831126
2011.46	0.410802
2012.93	0.310439
2014.4	0.00780869
2015.87	0.175745
2017.34	0.443714
2018.81	-0.247496
2020.28	-0.182403
2021.75	0.319118
2023.21	0.0482569
2024.68	0.667545
2026.15	0.415205
2027.62	0.28161
2029.09	0.199623
2030.56	0.387171
2032.02	-0.129148
2033.49	0.193964
2034.96	0.164644
2036.42	0.101389
2037.89	0.121661
2039.36	0.20882
2040.82	0.211892
2042.29	0.0975671
2043.75	0.37063
2045.22	0.156689
2046.68	0.364078
2048.14	0.588806
2049.61	0.425875
2051.07	0.312504
2052.54	0.366386
2054	0.250061
2055.46	0.553807
2056.93	0.586448
2058.39	0.432961
2059.85	0.599453
2061.31	0.362043
2062.77	0.529459
2064.23	0.495716
2065.7	0.378713
2067.16	0.195128
2068.62	0.399133
2070.08	0.4688
2071.54	0.420689
2073	0.355604
2074.46	0.576534
2075.92	0.595117
2077.38	0.242881
2078.83	0.1429
2080.29	0.480345
2081.75	0.177448
2083.21	0.328576
2084.67	0.579951
2086.12	0.258557
2087.58	0.289982
2089.04	0.489067
2090.49	0.469388
2091.95	0.970109
2093.41	0.580883
2094.86	-0.14356
2096.32	0.221862
2097.77	0.736988
2099.23	0.782175
2100.68	0.408894
2102.14	0.67134
2103.59	0.683626
2105.05	0.229703
2106.5	0.528126
2107.95	0.64382
2109.41	0.676408
2110.86	0.275106
2112.31	0.556177
2113.76	0.552368
2115.21	0.547132
2116.67	0.391451
2118.12	0.66814
2119.57	0.364563
2121.02	0.461126
2122.47	0.841213
2123.92	0.343575
2125.37	0.277739
2126.82	0.85833
2128.27	0.244375
2129.72	0.640422
2131.17	0.339368
2132.62	0.650387
2134.07	0.563936
2135.51	0.660097
2136.96	0.873111
2138.41	0.83974
2139.86	0.576663
2141.31	0.71165
2142.75	1.06272
2144.2	1.00109
2145.65	0.591982
2147.09	1.02669
2148.54	0.931155
2149.98	0.75197
2151.43	0.803814
2152.87	0.738809
2154.32	0.90504
2155.76	0.789179
2157.21	0.607113
2158.65	1.13791
2160.1	1.40485
2161.54	1.30891
2162.98	1.16483
2164.43	1.12152
2165.87	0.929509
2167.31	0.903312
2168.75	1.0092
2170.2	0.880801
2171.64	1.16639
2173.08	1.16747
2174.52	1.40015
2175.96	1.03349
2177.4	1.3987
2178.84	0.683803
2180.28	0.917455
2181.72	1.15189
2183.16	0.888025
2184.6	1.22309
2186.04	1.34208
2187.48	1.11171
2188.92	0.947853
2190.36	1.3665
2191.79	1.28561
2193.23	1.07085
2194.67	1.12129
2196.11	1.08689
2197.54	1.31694
2198.98	1.07955
2200.42	1.27352
2201.85	0.653477
2203.29	0.764862
2204.72	0.893604
2206.16	0.890528
2207.59	0.722274
2209.03	0.918339
2210.46	0.600458
2211.9	0.38132
2213.33	0.988298
2214.77	0.7849
2216.2	0.549246
2217.63	0.562283
2219.07	0.609334
2220.5	0.871424
2221.93	0.672019
2223.36	0.340362
2224.8	0.732392
2226.23	0.497157
2227.66	0.655438
2229.09	0.450943
2230.52	0.590705
2231.95	0.615228
2233.39	0.65627
2234.81	0.190938
2236.25	0.413614
2237.67	0.865804
2239.1	0.2585
2240.53	0.322146
2241.96	0.485144
2243.39	0.290382
2244.82	0.275362
2246.25	0.325072
2247.68	0.194084
2249.1	0.37114
2250.53	0.660157
2251.96	0.035614
2253.38	0.0619478
2254.81	0.624581
2256.24	0.278323
2257.66	0.307651
2259.09	0.371779
2260.51	0.292353
2261.94	0.247417
2263.36	0.155078
2264.79	0.647967
2266.21	0.783415
2267.64	0.576679
2269.06	0.173664
2270.49	0.420849
2271.91	0.276928
2273.33	0.181633
2274.76	-0.353471
2276.18	0.203003
2277.6	0.515435
2279.02	-0.133748
2280.44	0.390751
2281.87	0.181432
2283.29	0.0208678
2284.71	0.757766
2286.13	0.222041
2287.55	0.0945039
2288.97	0.146907
2290.39	0.379427
2291.81	0.269093
2293.23	0.126058
2294.65	-0.180731
2296.07	0.215979
2297.49	0.154469
2298.91	0.142087
2300.33	0.3429
2301.74	0.248982
2303.16	0.0731888
2304.58	0.504671
2306	0.164669
2307.41	0.514138
2308.83	0.0579982
2310.25	0.258759
2311.66	0.130323
2313.08	0.232113
2314.5	0.433043
2315.91	-0.369709
2317.33	0.0630107
2318.74	0.644939
2320.16	0.60059
2321.57	0.637757
2322.98	0.607281
2324.4	0.607748
2325.81	0.754685
2327.23	0.619615
2328.64	0.368595
2330.05	0.134449
2331.46	-0.164598
2332.88	-0.297938
2334.29	0.375743
2335.7	0.0787621
2337.11	0.159838
2338.52	0.240057
2339.94	-0.190169
2341.35	0.0690289
2342.76	0.311036
2344.17	0.273868
2345.58	0.302518
2346.99	0.21672
2348.4	0.212908
2349.81	-0.0529547
2351.22	0.154978
2352.62	-0.209898
2354.03	0.192022
2355.44	0.087225
2356.85	-0.0990715
2358.26	0.15416
2359.67	0.358189
2361.07	0.0749383
2362.48	-0.0131621
2363.89	-0.165947
2365.29	0.102187
2366.7	0.208274
2368.11	0.153175
2369.51	-0.126806
2370.92	0.062201
2372.32	-0.0379162
2373.73	0.346017
2375.13	-0.284115
2376.54	0.260546
2377.94	0.273105
2379.35	0.380733
2380.75	0.0693378
2382.15	0.206366
2383.56	-0.058135
2384.96	0.109681
2386.36	0.285397
2387.76	0.461456
2389.17	0.327279
2390.57	-0.267595
2391.97	-0.0168295
2393.37	0.282208
2394.77	0.199954
2396.17	0.13428
2397.58	0.291693
2398.98	0.0205135
2400.38	-0.0753832
2401.78	0.130811
2403.18	0.289342
2404.58	0.511028
2405.97	0.223909
2407.37	0.380467
2408.77	0.107971
2410.17	-0.196259
2411.57	0.165398
2412.97	0.289841
2414.37	-0.123021
2415.76	-0.202076
2417.16	0.163247
2418.56	0.101925
2419.95	0.0250788
2421.35	0.312444
2422.75	0.140174
2424.14	0.110217
2425.54	0.0644412
2426.93	-0.028481
2428.33	0.386572
2429.72	0.27937
2431.12	0.236171
2432.51	-0.203782
2433.91	0.0224857
2435.3	-0.244465
2436.7	-0.0201797
2438.09	0.107528
2439.48	-0.0200629
2440.88	0.169232
2442.27	0.10393
2443.66	-0.0567875
2445.05	0.115569
2446.44	0.366918
2447.84	0.0157166
2449.23	0.124184
2450.62	0.185239
2452.01	-0.243972
2453.4	0.245471
2454.79	-0.023953
2456.18	-0.324347
2457.57	0.150658
2458.96	-0.260247
2460.35	0.0401387
2461.74	-0.276878
2463.13	0.00625229
2464.52	0.0990858
2465.91	-0.0926929
2467.29	0.236535
2468.68	0.218294
2470.07	-0.14706
2471.46	0.0865698
2472.85	0.0988235
2474.23	0.0631804
2475.62	0.0113015
2477.01	-0.0722585
2478.39	0.0955386
2479.78	0.0905805
2481.16	0.226899
2482.55	0.237614
2483.93	0.0287547
2485.32	0.241824
2486.7	-0.187077
2488.09	-0.272607
2489.47	-0.405311
2490.86	0.0225239
2492.24	-0.109952
2493.62	-0.101499
2495.01	-0.185027
2496.39	-0.00386763
2497.77	-0.0700722
2499.15	0.189122
2500.54	-0.000871181
2501.92	0.272442
2503.3	0.266498
2504.68	-0.0795856
2506.06	-0.148114
2507.45	0.0603347
2508.83	0.00704765
2510.21	0.0617328
2511.59	0.0401301
2512.97	-0.333342
2514.35	-0.138755
2515.73	0.056262
2517.11	-0.115437
2518.48	0.0651741
2519.86	0.44442
2521.24	-0.093328
2522.62	-0.0204391
2524	0.280452
2525.38	-0.120818
2526.75	-0.171429
2528.13	-0.0999212
2529.51	0.398149
2530.89	0.365086
2532.26	-0.152689
2533.64	0.272857
2535.02	-0.227745
2536.39	-0.0750523
2537.77	0.183431
2539.14	0.304335
2540.52	0.105606
2541.89	0.164694
2543.27	0.208787
2544.64	0.374932
2546.01	0.056735
2547.39	0.164325
2548.76	0.34855
2550.14	0.0929127
2551.51	0.443859
2552.88	0.247705
2554.25	0.369337
2555.63	0.277719
2557	0.0491357
2558.37	0.0025177
2559.74	-0.119658
2561.11	0.0769539
2562.49	-0.0441914
2563.86	0.168574
2565.23	0.0180278
2566.6	0.00408983
2567.97	0.0811701
2569.34	0.0521832
2570.71	0.00803995
2572.08	0.130665
2573.45	0.132115
2574.82	-0.0634222
2576.18	0.332329
2577.55	0.0154681
2578.92	0.183602
2580.29	0.169499
2581.66	0.412812
2583.02	-0.253921
2584.39	-0.0111341
2585.76	0.322506
2587.13	0.42883
2588.49	-0.176997
2589.86	-0.0400548
2591.22	-0.0699039
2592.59	0.127159
2593.96	0.262887
2595.32	-0.0263615
2596.69	0.0318847
2598.05	0.149901
2599.42	-0.125661
2600.78	0.143155
2602.14	0.185564
2603.51	0.0322771
2604.87	-0.195832
2606.23	0.240139
2607.6	0.0271454
2608.96	0.280864
2610.32	-0.21986
2611.69	0.242273
2613.05	0.191335
2614.41	0.184876
2615.77	-0.0319028
2617.13	0.246652
2618.49	0.0309453
2619.86	0.355014
2621.22	-0.128223
2622.58	-0.13214
2623.94	-0.00144625
2625.3	0.248434
2626.66	0.274079
2628.02	0.150385
2629.37	0.22019
2630.73	-0.0673761
2632.09	0.254946
2633.45	-0.0471697
2634.81	0.274571
2636.17	-0.501687
2637.53	-0.0171185
2638.88	0.185393
2640.24	0.239771
2641.6	-0.00138617
2642.96	-0.0794296
2644.31	0.433324
2645.67	-0.116891
2647.02	0.497987
2648.38	0.0802035
2649.74	-0.116806
2651.09	0.156437
2652.45	0.208542
2653.8	0.334078
2655.16	0.0495968
2656.51	0.000889301
2657.86	-0.0760241
2659.22	0.184403
2660.57	0.094027
2661.93	0.105951
2663.28	-0.14554
2664.63	-0.061667
2665.98	0.240234
2667.34	0.380925
2668.69	-0.206802
2670.04	0.31247
2671.39	0.0462742
2672.75	0.27503
2674.09	0.14102
2675.45	0.312475
2676.8	0.12157
2678.15	0.00390625
2679.5	0.264023
2680.85	-0.170948
2682.2	-0.140924
2683.55	0.484637
2684.9	-0.121533
2686.25	-0.219815
2687.6	0.146235
2688.94	0.0469308
2690.29	0.280089
2691.64	0.206789
2692.99	0.0596514
2694.34	0.346817
2695.68	0.50305
2697.03	-0.122575
2698.38	0.0932746
2699.73	0.136721
2701.07	0.283057
2702.42	0.314917
2703.76	0.478176
2705.11	0.265154
2706.45	0.269559
2707.8	0.186694
2709.15	0.248584
2710.49	0.32471
2711.83	0.22634
2713.18	-0.00298977
2714.52	-0.130762
2715.87	0.322941
2717.21	-0.0522065
2718.55	0.41601
2719.9	0.50581
2721.24	0.202307
2722.58	0.334958
2723.93	0.350771
2725.27	0.104207
2726.61	0.293982
2727.95	0.0322924
2729.29	0.13426
2730.63	-0.0549264
2731.98	0.294211
2733.32	0.119654
2734.66	0.17802
2736	0.0183945
2737.34	0.498849
2738.68	0.106664
2740.02	0.470522
2741.36	-0.0385127
2742.7	0.251639
2744.03	0.0323882
2745.37	0.306696
2746.71	-0.174721
2748.05	0.287617
2749.39	0.415885
2750.72	-0.0939193
2752.06	0.107293
2753.4	-0.0247641
2754.74	0.147675
2756.07	0.23323
2757.41	0.304402
2758.75	0.100721
2760.08	-0.348575
2761.42	0.0998893
2762.76	0.0711703
2764.09	0.172969
2765.42	0.115621
2766.76	0.0145164
2768.09	0.0139337
2769.43	0.0845766
2770.76	-0.221827
2772.1	0.12089
2773.43	-0.360308
2774.76	0.00945711
2776.1	0.14805
2777.43	-0.0874734
2778.76	0.382516
2780.1	-0.0530581
2781.43	-0.243606
2782.76	-0.0463266
2784.09	0.107631
2785.42	0.161036
2786.75	-0.043292
2788.09	-0.118114
2789.42	-0.306665
2790.75	0.335226
2792.08	-0.195058
2793.41	0.104451
2794.74	0.203799
2796.07	0.145655
2797.4	0.0727959
2798.73	-0.0861616
2800.06	-0.00272179
2801.39	-0.105036
2802.71	0.10628
2804.04	0.046401
2805.37	0.0431981
2806.7	-0.0886106
2808.03	-0.220772
2809.35	0.030643
2810.68	-0.0733581
2812.01	-0.0915699
2813.33	0.34505
2814.66	-0.0397687
2815.99	-0.0404034
2817.31	-0.295193
2818.64	0.187568
2819.96	0.145942
2821.29	0.259852
2822.61	0.0897446
2823.94	0.103343
2825.26	0.13079
2826.59	0.356509
2827.91	0.256937
2829.23	-0.196034
2830.56	0.257449
2831.88	-0.0816159
2833.21	0.131353
2834.53	0.443123
2835.85	0.627041
2837.17	0.2869
2838.5	0.724554
2839.82	0.299131
2841.14	0.566788
2842.46	0.50956
2843.78	0.834498
2845.1	0.679512
2846.42	1.09037
2847.74	1.06347
2849.06	0.923534
2850.38	0.967087
2851.71	0.840627
2853.03	1.13773
2854.34	1.10942
2855.66	1.5472
2856.98	1.43389
2858.3	1.30654
2859.62	1.20747
2860.94	1.7437
2862.26	1.84181
2863.57	1.98189
2864.89	1.76889
2866.21	1.5983
2867.53	2.14727
2868.84	2.37207
2870.16	2.35752
2871.48	2.92107
2872.79	2.82181
2874.11	2.42602
2875.42	2.94505
2876.74	2.91356
2878.05	2.79688
2879.37	2.76441
2880.68	2.70413
2882	2.71489
2883.31	2.54402
2884.63	2.51454
2885.94	2.72428
2887.26	2.66735
2888.57	2.6662
2889.88	2.42589
2891.19	2.94219
2892.51	2.85481
2893.82	2.68328
2895.13	3.03031
2896.44	2.95786
2897.76	3.25025
2899.07	2.92786
2900.38	2.8581
2901.69	3.22243
2903	3.11134
2904.31	3.37803
2905.62	3.42117
2906.93	3.53473
2908.24	4.08271
2909.55	3.48435
2910.86	3.75395
2912.17	4.06566
2913.48	3.85881
2914.79	4.30868
2916.1	4.56092
2917.41	4.6016
2918.71	4.71122
2920.02	4.94644
2921.33	4.69275
2922.64	5.08338
2923.94	4.66452
2925.25	5.46288
2926.56	5.14362
2927.86	5.10397
2929.17	5.07795
2930.48	5.37294
2931.78	5.40181
2933.09	5.83578
2934.39	5.05365
2935.7	5.34787
2937	5.23693
2938.31	4.69298
2939.61	5.09951
2940.92	4.83578
2942.22	5.21562
2943.53	5.03764
2944.83	4.60923
2946.13	4.4194
2947.43	4.20203
2948.74	3.92831
2950.04	4.40944
2951.34	4.03497
2952.64	4.09278
2953.95	4.05125
2955.25	4.0373
2956.55	3.80016
2957.85	3.43884
2959.15	3.77983
2960.45	3.50726
2961.75	3.61471
2963.05	3.59683
2964.35	3.53636
2965.65	3.54476
2966.95	3.15811
2968.25	3.13545
2969.55	3.44954
2970.85	3.31354
2972.15	2.93855
2973.45	2.74662
2974.75	2.8361
2976.05	3.22076
2977.34	2.80172
2978.64	3.01471
2979.94	2.57844
2981.24	2.57741
2982.53	2.82896
2983.83	2.64472
2985.13	2.46158
2986.42	2.0129
2987.72	1.93095
2989.01	1.51263
2990.31	1.90963
2991.61	1.88462
2992.9	1.8165
2994.19	2.11255
2995.49	1.57862
2996.78	1.39538
2998.08	1.09981
2999.37	1.52005
3000.67	1.37953
3001.96	1.2256
3003.25	0.932
3004.55	0.750726
3005.84	0.835407
3007.13	1.12946
3008.42	0.736902
3009.72	0.735496
3011.01	0.789295
3012.3	1.03805
3013.59	0.463268
3014.88	0.516994
3016.17	0.947342
3017.46	0.695593
3018.76	0.416748
3020.05	0.444232
3021.34	0.179417
3022.63	0.344794
3023.92	0.758839
3025.21	0.228624
3026.49	0.405573
3027.78	0.513335
3029.07	0.372965
3030.36	0.178791
3031.65	0.566103
3032.94	0.457032
3034.23	0.403528
3035.51	0.666895
3036.8	0.170516
3038.09	0.472322
3039.38	0.48287
3040.66	0.327
3041.95	0.678534
3043.23	0.576636
3044.52	0.352501
3045.81	0.390079
3047.09	0.320147
3048.38	0.64826
3049.66	0.391105
3050.95	0.544852
3052.23	0.0716171
3053.52	0.485347
3054.8	0.407283
3056.09	0.451061
3057.37	0.575597
3058.65	0.780979
3059.94	0.522856
3061.22	0.442208
3062.5	0.770475
3063.79	0.583008
3065.07	0.641683
3066.35	0.647214
3067.63	0.395308
3068.92	0.238856
3070.2	0.354139
3071.48	0.387075
3072.76	-0.0026412
3074.04	0.463182
3075.32	0.615217
3076.6	-0.129579
3077.88	-0.0317798
3079.16	0.0667639
3080.44	-0.0912724
3081.72	-0.166625
3083	-0.0646009
3084.28	0.187274
3085.56	0.127144
3086.84	0.528076
3088.12	-0.116764
3089.4	0.269306
3090.67	0.207018
3091.95	0.0224733
3093.23	0.0686707
3094.51	-0.101913
3095.78	-0.0959754
3097.06	-0.293338
3098.34	0.159856
3099.61	-0.132565
3100.89	0.00853252
3102.17	0.298516
3103.44	0.0740566
3104.72	0.0801969
3105.99	-0.143159
3107.27	0.162016
3108.54	-0.019166
3109.82	0.233613
3111.09	0.216534
3112.37	0.552251
3113.64	0.143303
3114.92	-0.0762291
3116.19	-0.133604
3117.46	0.174452
3118.74	0.128965
3120.01	-0.107377
3121.28	-0.141074
3122.55	0.0821977
3123.83	0.156042
3125.1	0.311143
3126.37	0.0198135
3127.64	0.175603
3128.91	0.372264
3130.19	0.501471
3131.46	0.103484
3132.73	0.286629
3134	0.0505581
3135.27	0.138218
3136.54	0.198252
3137.81	-0.227641
3139.08	0.0741982
3140.35	0.106139
3141.62	0.460759
3142.89	0.304367
3144.16	0.349971
3145.42	-0.0199027
3146.69	0.388814
3147.96	0.462574
3149.23	-0.105987
