200.533	0.431231
202.348	0.457991
204.162	0.485604
205.976	0.78138
207.792	0.323355
209.605	0.351055
211.418	0.183295
213.23	0.572687
215.044	0.0630531
216.856	0.110923
218.667	-0.0835571
220.478	-0.0595818
222.289	-0.252716
224.102	0.618713
225.912	0.305518
227.721	-0.128301
229.531	0.25872
231.34	-0.537819
233.148	-0.151972
234.956	-0.00744438
236.766	0.282561
238.574	-0.124892
240.381	-0.434024
242.188	0.584541
243.994	-0.180281
245.801	0.115898
247.606	0.0245275
249.412	0.123896
251.217	0.0273571
253.024	0.62838
254.828	0.117608
256.632	0.0649977
258.436	0.663681
260.239	0.709181
262.042	-0.0146112
263.845	0.154219
265.647	0.0587864
267.449	-0.0365477
269.25	0.301585
271.052	0.180939
272.852	-0.0131655
274.653	-0.112112
276.453	-0.333003
278.253	-0.0734272
280.052	0.13601
281.852	0.102711
283.65	0.380433
285.449	-0.352674
287.247	0.0429621
289.044	-0.161675
290.842	0.0418091
292.639	0.0305271
294.436	-0.266586
296.232	0.394022
298.028	-0.0683746
299.821	0.162687
301.617	0.106753
303.412	0.169433
305.206	-0.0554237
307	-0.185474
308.794	0.423312
310.588	-0.135568
312.381	0.283393
314.172	0.0843058
315.964	0.0533981
317.756	0.333476
319.548	0.0907803
321.34	0.825986
323.131	0.4417
324.921	0.486782
326.71	0.269258
328.5	0.218449
330.29	0.573355
332.079	0.353501
333.868	0.921514
335.654	0.123804
337.443	0.0898113
339.231	-0.0416327
341.018	0.495288
342.804	0.361728
344.591	0.0131702
346.377	-0.000379562
348.163	-0.0134192
349.947	0.236471
351.733	0.175944
353.518	-0.266869
355.303	-0.161687
357.085	0.371465
358.869	0.0450649
360.653	0.527732
362.435	0.29501
364.218	0.394843
366.001	0.0900049
367.781	0.0460882
369.563	0.57055
371.345	0.216803
373.124	0.289049
374.905	0.0299549
376.686	-0.11051
378.464	0.150553
380.244	0.270462
382.022	0.579385
383.801	0.183306
385.58	0.000309944
387.357	0.335373
389.135	-0.0805979
390.911	0.02106
392.689	-0.111529
394.466	0.366925
396.241	-0.0232878
398.018	-0.155137
399.792	0.159068
401.568	-0.161268
403.341	0.152015
405.117	0.206289
406.889	-0.115808
408.664	0.383419
410.436	0.107545
412.21	0.582777
413.981	0.682756
415.755	0.243663
417.525	-0.0540042
419.298	-0.0461583
421.068	0.149614
422.84	0.321741
424.609	-0.187522
426.38	0.171057
428.149	0.176786
429.919	-0.146501
431.688	0.0700526
433.455	-0.511142
435.225	-0.223707
436.992	0.227965
438.76	0.326996
440.527	0.800192
442.293	0.333113
444.06	-0.135338
445.826	-0.112721
447.593	-0.325134
449.357	0.257485
451.122	0.138277
452.888	-0.00381994
454.651	0.507559
456.415	0.412144
458.18	0.0605855
459.942	0.22156
461.705	0.12708
463.469	0.10371
465.23	0.151999
466.991	0.0166893
468.752	0.580774
470.515	0.263173
472.275	0.0387487
474.035	-0.16327
475.797	0.285299
477.556	0.313005
479.315	-0.406219
481.073	-0.147827
482.834	0.133937
484.592	0.0206943
486.349	0.141924
488.106	0.195023
489.863	0.856294
491.622	0.188871
493.378	0.338605
495.134	0.418612
496.889	0.0773139
498.645	0.156906
500.401	0.423887
502.156	0.150925
503.91	0.323101
505.664	0.353538
507.417	0.24177
509.171	-0.0830746
510.923	0.390647
512.678	0.369032
514.43	0.699118
516.182	0.345729
517.933	0.391325
519.684	0.506578
521.435	0.550615
523.186	0.500279
524.936	0.473294
526.686	0.751279
528.435	0.161499
530.184	0.298685
531.933	0.107491
533.682	0.524432
535.43	0.0978112
537.18	0.301699
538.927	-0.0795612
540.674	0.308592
542.421	-0.0268207
544.167	0.661843
545.913	0.0476813
547.659	0.850773
549.403	0.470023
551.148	0.391324
552.893	-0.288414
554.637	0.604605
556.381	0.526584
558.125	-0.12742
559.868	0.00349617
561.611	-0.00347757
563.354	0.335035
565.097	0.673541
566.839	0.0474267
568.581	0.22621
570.322	0.382753
572.063	-0.170827
573.802	-0.149434
575.542	0.607461
577.283	-0.125507
579.022	0.10624
580.762	-0.143522
582.501	-0.163664
584.24	-0.0463109
585.976	0.231323
587.714	-0.0670004
589.452	0.162786
591.19	-0.229342
592.927	-0.345781
594.663	0.181875
596.398	-0.187707
598.134	-0.00514698
599.87	0.1081
601.605	0.404684
603.338	0.286152
605.073	0.166499
606.808	0.137816
608.542	-0.144067
610.274	0.629991
612.007	-0.11027
613.74	0.274256
615.473	-0.280632
617.204	0.241799
618.936	0.419889
620.668	0.00178719
622.397	0.383818
624.128	-0.172575
625.859	0.322612
627.588	-0.0722709
629.318	-0.0544424
631.048	-0.148851
632.775	0.37446
634.505	0.191228
636.233	0.920745
637.96	0.598785
639.688	0.206165
641.416	0.450089
643.142	0.691674
644.869	0.226015
646.594	0.284687
648.32	0.140259
650.045	0.293922
651.771	0.564291
653.496	0.0424547
655.219	0.159598
656.944	0.0738215
658.667	0.809226
660.391	0.0397515
662.113	0.409486
663.837	0.115132
665.558	0.207215
667.281	0.32071
669.002	0.342185
670.724	0.661717
672.444	0.639812
674.166	0.64284
675.885	0.235055
677.606	0.92886
679.325	-0.305196
681.045	0.871544
682.763	0.415196
684.483	0.347863
686.2	0.209776
687.917	0.162503
689.636	0.851476
691.352	0.180839
693.07	0.269843
694.786	-0.0333076
696.501	0.583962
698.219	0.509325
699.933	0.571783
701.65	-0.125682
703.364	0.0732923
705.078	0.615947
706.793	1.20327
708.506	0.482278
710.219	0.861913
711.934	0.920096
713.646	0.24603
715.358	1.19546
717.071	1.04726
718.782	0.4204
720.493	0.524085
722.204	0.582181
723.916	0.731214
725.626	0.720783
727.336	0.687416
729.045	0.812604
730.756	0.914502
732.464	0.789435
734.173	0.551342
735.881	0.969217
737.59	1.22852
739.297	0.743505
741.004	0.91381
742.711	1.24256
744.417	1.27941
746.125	1.02491
747.831	1.19921
749.537	0.744782
751.242	0.831313
752.946	1.30131
754.651	1.52515
756.357	1.79545
758.061	1.572
759.764	0.80886
761.467	1.28567
763.17	1.31235
764.872	1.65494
766.575	0.935024
768.276	1.23006
769.978	2.04356
771.679	2.22231
773.382	1.90229
775.083	1.35582
776.783	1.35254
778.483	2.14177
780.182	1.9375
781.882	2.0282
783.581	1.93802
785.279	2.09575
786.978	1.57227
788.676	1.24988
790.373	1.33217
792.071	1.45731
793.768	1.42284
795.464	1.4559
797.161	1.5573
798.857	1.2546
800.552	1.42645
802.248	1.5768
803.941	1.66014
805.636	1.72076
807.33	1.75814
809.024	1.50254
810.718	1.62774
812.412	1.14655
814.105	1.24819
815.798	2.13295
817.49	1.74127
819.183	1.68554
820.873	1.74171
822.564	1.3965
824.256	1.83284
825.947	1.57911
827.637	1.5502
829.328	1.635
831.016	1.58876
832.705	1.4335
834.395	1.52506
836.084	1.86291
837.772	1.35285
839.459	2.09171
841.147	1.19914
842.835	1.5785
844.522	1.75649
846.209	1.95753
847.894	2.13792
849.581	1.42573
851.267	1.45356
852.953	1.43822
854.637	1.35628
856.322	0.869652
858.007	2.0675
859.689	1.26318
861.374	0.636328
863.058	0.998752
864.739	0.842101
866.423	0.955138
868.106	1.36086
869.787	1.60849
871.469	0.615273
873.151	0.591701
874.831	0.545499
876.512	0.724957
878.193	0.814194
879.872	1.64827
881.553	1.55662
883.231	0.945078
884.911	1.43878
886.591	1.47975
888.268	0.977886
889.947	0.790833
891.623	0.985913
893.302	1.44985
894.978	0.944555
896.656	1.49576
898.331	0.809983
900.008	1.11183
901.683	0.785029
903.359	1.19695
905.033	1.16075
906.709	1.28107
908.383	1.42394
910.058	1.27774
911.731	0.843436
913.405	0.877233
915.078	1.02227
916.752	1.01178
918.423	1.04558
920.096	1.14583
921.768	0.626994
923.438	0.662523
925.111	0.853918
926.781	0.86997
928.452	0.401793
930.122	0.685086
931.791	0.240718
933.462	0.634956
935.13	1.05129
936.799	0.740067
938.468	0.760402
940.136	0.561156
941.803	1.46584
943.472	0.959295
945.139	0.717209
946.805	1.20254
948.473	0.626832
950.139	1.02077
951.804	1.19289
953.471	0.92388
955.136	0.590171
956.801	0.391018
958.465	0.613429
960.131	1.21351
961.794	0.666996
963.458	0.981655
965.12	0.941387
966.785	0.832479
968.447	0.654856
970.109	0.696805
971.771	0.892894
973.432	1.39892
975.095	0.756195
976.756	0.800508
978.417	1.5982
980.077	1.76622
981.737	1.88968
983.396	1.24815
985.057	1.04762
986.716	1.42081
988.375	0.796658
990.033	0.857521
991.691	1.00619
993.349	0.911592
995.006	1.03792
996.663	0.965645
998.32	0.67294
999.976	0.732942
1001.63	1.23295
1003.29	1.6439
1004.95	1.28433
1006.6	0.815296
1008.26	1.13754
1009.91	0.867146
1011.56	1.01412
1013.22	0.13126
1014.87	1.06769
1016.53	1.06209
1018.18	0.334906
1019.83	0.54946
1021.48	0.699097
1023.14	1.35228
1024.79	0.869601
1026.44	0.933821
1028.09	0.910624
1029.74	0.996113
1031.39	1.49546
1033.04	0.792375
1034.69	0.699514
1036.34	0.474845
1037.99	1.03409
1039.64	0.895868
1041.29	0.932425
1042.94	0.535306
1044.58	0.878728
1046.23	1.15835
1047.88	0.83139
1049.52	0.831585
1051.17	0.767651
1052.82	0.53055
1054.46	0.793422
1056.11	0.730374
1057.75	0.732275
1059.4	0.885961
1061.04	0.930415
1062.69	1.03944
1064.33	0.625833
1065.98	0.0158167
1067.62	0.644032
1069.26	1.18414
1070.9	0.941502
1072.55	0.373379
1074.19	1.06458
1075.83	0.129375
1077.47	0.345053
1079.11	-0.00216293
1080.76	0.648705
1082.4	0.280363
1084.04	0.453398
1085.68	0.473323
1087.32	0.643259
1088.95	0.20504
1090.59	0.00408268
1092.23	0.645581
1093.87	0.702416
1095.51	0.694585
1097.15	0.601246
1098.78	0.379932
1100.42	0.612379
1102.06	0.437319
1103.69	0.694038
1105.33	0.0483265
1106.97	0.112925
1108.6	0.413809
1110.24	0.240695
1111.87	0.281361
1113.51	0.449597
1115.14	1.15331
1116.77	0.0750799
1118.41	0.263221
1120.04	0.473086
1121.67	0.555042
1123.31	0.338152
1124.94	0.699868
1126.57	0.677078
1128.2	0.419714
1129.83	0.398202
1131.47	0.441285
1133.1	0.826628
1134.72	0.249881
1136.36	0.207067
1137.98	0.0138702
1139.62	-0.137415
1141.24	0.137654
1142.87	0.17735
1144.5	0.0465059
1146.13	-0.0410366
1147.76	0.341055
1149.38	0.0631504
1151.01	-0.129052
1152.64	0.0834284
1154.27	-0.2367
1155.89	-0.152576
1157.52	0.314363
1159.14	-0.218333
1160.77	-0.0696449
1162.39	0.271206
1164.02	0.315139
1165.64	-0.12957
1167.27	-0.0216894
1168.89	0.0428209
1170.51	0.169749
1172.14	0.167592
1173.76	0.248973
1175.38	-0.158663
1177	-0.0149088
1178.63	0.0228863
1180.25	0.293994
1181.87	-0.259508
1183.49	-0.00850105
1185.11	-0.159232
1186.73	0.386279
1188.35	0.381119
1189.97	0.0793123
1191.59	0.492429
1193.21	-0.0217333
1194.83	0.325635
1196.45	0.588206
1198.07	0.683372
1199.68	0.424262
1201.3	0.209388
1202.92	-0.0656729
1204.53	-0.171496
1206.15	0.684112
1207.77	0.74772
1209.38	0.623775
1211	0.311477
1212.62	-0.00202179
1214.23	0.162309
1215.84	0.387142
1217.46	0.859777
1219.07	0.811156
1220.69	0.990891
1222.3	0.341372
1223.91	0.605706
1225.53	0.788039
1227.14	0.888628
1228.75	0.307753
1230.36	0.658738
1231.97	1.48593
1233.59	0.681114
1235.2	1.28284
1236.81	0.769498
1238.42	0.628966
1240.03	1.66758
1241.64	0.597113
1243.25	0.539592
1244.85	0.750419
1246.46	1.18808
1248.07	1.41797
1249.68	1.02647
1251.29	0.800316
1252.9	1.23633
1254.5	1.2799
1256.11	0.807298
1257.72	1.01831
1259.32	1.06483
1260.93	1.33982
1262.54	0.600705
1264.14	1.51831
1265.75	1.33789
1267.35	0.493416
1268.96	0.767362
1270.56	1.51742
1272.16	1.14698
1273.77	1.06596
1275.37	1.17069
1276.97	1.08808
1278.57	1.58483
1280.18	1.25245
1281.78	1.16845
1283.38	1.93281
1284.98	1.04272
1286.58	1.41503
1288.18	0.754642
1289.78	0.735841
1291.38	1.58531
1292.99	0.760944
1294.58	1.67145
1296.18	1.38258
1297.78	1.34025
1299.38	0.966471
1300.98	1.39594
1302.58	1.78247
1304.17	1.59128
1305.77	1.19425
1307.37	1.04404
1308.97	1.30419
1310.56	1.2974
1312.16	0.881557
1313.76	1.34655
1315.35	1.32115
1316.95	1.317
1318.54	0.986917
1320.14	1.59495
1321.73	1.22351
1323.32	0.627624
1324.92	1.53568
1326.51	0.958527
1328.1	1.03115
1329.7	2.03538
1331.29	1.42084
1332.88	1.15294
1334.47	1.25078
1336.07	1.55162
1337.66	1.0257
1339.25	1.50759
1340.84	0.738656
1342.43	0.512609
1344.02	1.23016
1345.61	1.5035
1347.2	1.65606
1348.79	1.24897
1350.37	0.724644
1351.96	1.14312
1353.55	1.0031
1355.14	1.34391
1356.73	1.30518
1358.31	0.586911
1359.9	1.32606
1361.49	0.965958
1363.07	0.90476
1364.66	0.783563
1366.25	1.37997
1367.83	0.54266
1369.42	0.74216
1371	1.00237
1372.59	0.308514
1374.17	1.10793
1375.75	0.674211
1377.34	0.857399
1378.92	0.821281
1380.5	0.844032
1382.09	0.467878
1383.67	0.329561
1385.25	1.32355
1386.83	1.14412
1388.42	0.945148
1390	0.46902
1391.58	0.450325
1393.16	0.134688
1394.74	0.434304
1396.32	0.991401
1397.9	0.338438
1399.48	0.695708
1401.06	0.497378
1402.64	0.377988
1404.21	0.416989
1405.79	0.851821
1407.37	0.516135
1408.95	0.18137
1410.53	0.538517
1412.1	0.460992
1413.68	0.659401
1415.26	0.896392
1416.83	0.81696
1418.41	0.894992
1419.98	0.697453
1421.56	0.461591
1423.13	0.935766
1424.71	0.446665
1426.28	0.529365
1427.86	1.16359
1429.43	0.419792
1431	1.13178
1432.58	0.858742
1434.15	0.545727
1435.72	1.01923
1437.29	1.02077
1438.87	1.4357
1440.44	1.1438
1442.01	1.02962
1443.58	1.26977
1445.15	1.25475
1446.72	1.08264
1448.29	1.91315
1449.86	1.36793
1451.43	1.7471
1453	1.55653
1454.57	1.52356
1456.14	1.74632
1457.71	1.53566
1459.27	1.6781
1460.84	1.93712
1462.41	1.13204
1463.98	0.581845
1465.54	0.896145
1467.11	0.993763
1468.67	0.6793
1470.24	1.01344
1471.81	0.916654
1473.37	0.663879
1474.94	0.921654
1476.5	0.434629
1478.07	0.496736
1479.63	0.0491242
1481.19	0.797125
1482.76	0.388657
1484.32	0.430853
1485.88	0.47276
1487.45	0.807808
1489.01	0.652137
1490.57	0.27993
1492.13	0.336676
1493.69	0.0791802
1495.26	0.386654
1496.82	-0.0477881
1498.38	0.647297
1499.94	0.485997
1501.5	0.461811
1503.06	0.050756
1504.62	0.00925779
1506.17	0.471296
1507.73	0.0811005
1509.29	0.212496
1510.85	0.47778
1512.41	0.568323
1513.97	-0.111454
1515.52	0.0948086
1517.08	-0.390071
1518.64	0.315588
1520.19	0.637063
1521.75	-0.132612
1523.31	0.112099
1524.86	1.15745
1526.42	0.44532
1527.97	0.381718
1529.52	0.317879
1531.08	-0.0495543
1532.63	0.191146
1534.19	0.507634
1535.74	0.200037
1537.29	0.290601
1538.85	0.381502
1540.4	0.547942
1541.95	0.56343
1543.5	0.390627
1545.06	0.368415
1546.61	0.552678
1548.16	0.567589
1549.71	0.807361
1551.26	0.279136
1552.81	1.60421
1554.36	2.04932
1555.91	2.17753
1557.46	0.832673
1559.01	0.852712
1560.56	0.501165
1562.11	1.06501
1563.65	0.52906
1565.2	1.05699
1566.75	0.764022
1568.29	0.601437
1569.84	1.20382
1571.39	1.05931
1572.94	0.933215
1574.48	1.3297
1576.03	1.40888
1577.57	1.13354
1579.12	1.23192
1580.66	1.68561
1582.21	1.71059
1583.75	1.2319
1585.3	1.42631
1586.84	0.705135
1588.38	1.08704
1589.93	0.514746
1591.47	0.858913
1593.01	1.1655
1594.55	1.11617
1596.1	1.06685
1597.64	1.35522
1599.18	1.53185
1600.72	1.16521
1602.26	1.68072
1603.8	1.10756
1605.34	0.871451
1606.88	1.10392
1608.42	0.846225
1609.96	1.03779
1611.5	1.13351
1613.04	0.645436
1614.58	1.03901
1616.12	1.54429
1617.65	1.28087
1619.19	0.962511
1620.73	0.720518
1622.27	0.648217
1623.8	0.53911
1625.34	0.916716
1626.87	1.331
1628.41	1.18275
1629.95	0.940001
1631.48	0.752766
1633.02	1.08843
1634.55	0.677296
1636.09	1.16277
1637.62	1.27556
1639.15	0.82947
1640.69	1.48326
1642.22	1.11144
1643.76	1.59557
1645.29	2.02232
1646.82	1.33204
1648.35	1.19995
1649.88	1.71825
1651.42	1.69858
1652.95	1.86547
1654.48	1.47698
1656.01	1.40434
1657.54	1.70225
1659.07	1.33251
1660.6	1.59144
1662.13	1.27539
1663.66	1.45798
1665.19	1.49206
1666.72	0.640589
1668.24	1.96735
1669.77	1.43216
1671.3	1.59885
1672.83	1.269
1674.35	1.1975
1675.88	1.10742
1677.41	1.78971
1678.93	0.778138
1680.46	0.888281
1681.99	1.42031
1683.51	1.03331
1685.04	1.10562
1686.56	1.26983
1688.09	0.902698
1689.61	0.975919
1691.13	0.701386
1692.66	0.536985
1694.18	0.573895
1695.71	0.464386
1697.23	0.720224
1698.75	0.318125
1700.27	0.0439315
1701.8	0.426251
1703.32	0.406682
1704.84	0.113587
1706.36	0.602985
1707.88	0.0369954
1709.4	0.343729
1710.92	0.12374
1712.44	0.103704
1713.96	0.264987
1715.48	0.516562
1717	0.442102
1718.52	-0.0660644
1720.04	-0.013669
1721.56	0.381567
1723.07	-0.0707111
1724.59	0.126952
1726.11	-0.0347896
1727.63	0.18256
1729.14	0.598422
1730.66	0.258484
1732.18	-0.0946059
1733.69	0.175544
1735.21	0.35503
1736.72	-0.0680566
1738.24	0.00388813
1739.75	0.133773
1741.27	-0.431726
1742.78	-0.197528
1744.3	-0.00171232
1745.81	0.17587
1747.32	0.00833273
1748.84	0.0703778
1750.35	0.173025
1751.86	0.198584
1753.37	-0.350217
1754.89	0.0282917
1756.4	0.0143547
1757.91	0.0847678
1759.42	0.00525331
1760.93	-0.140261
1762.44	0.0331392
1763.95	-0.147418
1765.46	-0.389309
1766.97	0.101461
1768.48	0.0842791
1769.99	0.148342
1771.5	0.158083
1773.01	-0.345715
1774.52	0.323012
1776.03	0.152456
1777.53	0.018424
1779.04	0.150634
1780.55	-0.0428987
1782.06	0.0881243
1783.56	-0.0179763
1785.07	0.149333
1786.57	-0.102862
1788.08	0.126503
1789.59	0.075623
1791.09	-0.321824
1792.6	0.162828
1794.1	0.0125051
1795.6	0.0470357
1797.11	0.228322
1798.61	-0.176017
1800.12	0.249799
1801.62	0.112805
1803.12	-0.125266
1804.63	0.167389
1806.13	-0.179762
1807.63	0.028698
1809.13	-0.115592
1810.63	-0.231772
1812.14	-0.0599852
1813.64	-0.108884
1815.14	-0.224422
1816.64	0.130324
1818.14	0.087101
1819.64	-0.0636292
1821.14	0.135684
1822.64	-0.0244446
1824.14	-0.0323653
1825.63	-0.0741091
1827.13	0.141255
1828.63	0.0991859
1830.13	-0.229784
1831.63	0.118691
1833.12	0.0251226
1834.62	0.123823
1836.12	0.18816
1837.62	0.0229135
1839.11	0.340378
1840.61	0.225365
1842.1	-0.00656271
1843.6	0.157557
1845.09	0.255875
1846.59	0.237803
1848.08	-0.0361252
1849.58	0.157157
1851.07	0.294497
1852.57	0.176138
1854.06	-0.0378079
1855.55	0.0471706
1857.04	0.311296
1858.54	-0.138144
1860.03	0.145631
1861.52	0.0371609
1863.01	0.0904984
1864.5	0.0420518
1866	0.305412
1867.49	0.268205
1868.98	0.277909
1870.47	0.123721
1871.96	0.0221415
1873.45	0.0079155
1874.94	-0.206112
1876.43	0.195546
1877.92	0.170181
1879.41	-0.00964022
1880.89	0.0602708
1882.38	0.116605
1882.48	0.121176
1883.97	0.244246
1885.47	0.314367
1886.96	-0.0342526
1888.46	0.0871253
1889.95	-0.017695
1891.44	0.0347877
1892.94	0.0188231
1894.43	0.230181
1895.92	0.129721
1897.41	-0.248416
1898.9	0.0516405
1900.4	0.211902
1901.89	0.283996
1903.38	-0.0800304
1904.87	0.146204
1906.36	0.597494
1907.85	0.318922
1909.34	0.422925
1910.83	0.406085
1912.32	0.00830555
1913.81	0.166107
1915.29	0.219878
1916.78	0.360071
1918.27	0.239808
1919.76	0.0499668
1921.25	0.31051
1922.74	0.207544
1924.22	-0.223685
1925.71	0.0557356
1927.2	-0.0968938
1928.68	-0.0586338
1930.17	0.13547
1931.65	0.519525
1933.14	0.0713239
1934.63	-0.118305
1936.11	0.106275
1937.59	0.744698
1939.08	0.310621
1940.56	0.153594
1942.05	0.118163
1943.53	0.342273
1945.01	-0.0711865
1946.5	0.119257
1947.98	0.240492
1949.46	0.395552
1950.94	0.119276
1952.43	-0.0369134
1953.91	-0.313687
1955.39	-0.0230927
1956.87	0.404757
1958.35	0.334861
1959.83	0.334199
1961.31	-0.00900221
1962.79	-0.214653
1964.27	-0.0261984
1965.75	0.110359
1967.23	0.468782
1968.71	0.33024
1970.19	0.105968
1971.67	0.172188
1973.14	0.204118
1974.62	0.338399
1976.1	0.302172
1977.58	-0.159701
1979.05	0.400394
1980.53	0.143232
1982.01	0.430242
1983.48	0.190047
1984.96	-0.0500455
1986.43	0.0322943
1987.91	-0.00414658
1989.38	0.450771
1990.86	0.296299
1992.33	0.396394
1993.81	0.243541
1995.28	0.361795
1996.76	0.395823
1998.23	0.227144
1999.7	0.277739
2001.18	0.0409732
2002.65	0.0064683
2004.12	0.140465
2005.59	0.0723495
2007.06	0.526949
2008.54	0.17368
2010.01	-0.161972
2011.48	0.125675
2012.95	0.0261674
2014.42	-0.00628805
2015.89	0.0953259
2017.36	-0.0224051
2018.83	0.262836
2020.3	0.345766
2021.77	0.260551
2023.24	0.175642
2024.71	0.0745707
2026.17	0.460827
2027.64	0.529317
2029.11	0.045403
2030.58	0.300449
2032.04	0.120008
2033.51	0.51056
2034.98	0.280026
2036.45	0.250646
2037.91	0.271265
2039.38	0.375632
2040.84	0.177395
2042.31	0.248351
2043.77	0.403957
2045.24	0.358407
2046.7	0.0271554
2048.17	0.554849
2049.63	0.290751
2051.1	-0.0923381
2052.56	0.585738
2054.02	0.318194
2055.48	0.48783
2056.95	0.100058
2058.41	0.150095
2059.87	0.317861
2061.33	0.553118
2062.8	0.317492
2064.26	0.284643
2065.72	0.622746
2067.18	0.439759
2068.64	0.0888715
2070.1	0.209447
2071.56	0.431103
2073.02	0.282282
2074.48	0.284781
2075.94	0.320716
2077.4	0.137455
2078.86	0.307546
2080.31	0.628832
2081.77	0.360357
2083.23	0.54597
2084.69	0.528996
2086.14	0.208692
2087.6	0.45988
2089.06	0.542456
2090.52	0.557593
2091.97	0.824479
2093.43	0.117782
2094.88	0.31727
2096.34	0.365329
2097.79	0.747816
2099.25	0.560233
2100.7	0.690416
2102.16	0.653437
2103.61	0.951081
2105.07	0.865479
2106.52	0.914483
2107.97	0.747451
2109.43	0.680819
2110.88	0.780532
2112.33	0.729214
2113.78	0.610054
2115.24	0.789371
2116.69	0.901177
2118.14	0.913332
2119.59	0.710672
2121.04	1.05714
2122.49	0.608751
2123.94	1.00734
2125.39	0.726519
2126.84	1.00928
2128.29	0.926505
2129.74	0.62731
2131.19	0.956773
2132.64	0.672803
2134.09	0.604165
2135.54	1.34634
2136.98	1.32869
2138.43	1.29598
2139.88	1.03339
2141.33	1.1687
2142.77	1.33808
2144.22	1.01182
2145.67	0.933637
2147.11	1.48432
2148.56	1.33928
2150.01	0.96154
2151.45	1.70957
2152.9	1.74443
2154.34	1.54662
2155.79	1.34846
2157.23	1.81296
2158.67	1.33379
2160.12	1.70047
2161.56	1.58814
2163	1.56009
2164.45	1.8982
2165.89	1.49041
2167.33	1.86282
2168.78	1.65303
2170.22	1.89063
2171.66	2.14328
2173.1	1.87858
2174.54	1.69591
2175.98	1.7955
2177.42	1.72892
2178.86	2.32796
2180.3	1.44812
2181.74	1.81591
2183.18	1.76853
2184.62	1.82115
2186.06	1.70749
2187.5	1.64371
2188.94	1.67979
2190.38	1.53275
2191.82	1.65182
2193.25	1.53722
2194.69	1.93769
2196.13	1.30452
2197.57	1.65185
2199	1.74798
2200.44	1.64371
2201.88	1.27379
2203.31	1.40261
2204.75	1.21707
2206.18	0.833628
2207.62	0.914788
2209.05	0.747356
2210.49	1.80431
2211.92	0.907386
2213.36	0.986298
2214.79	1.06497
2216.22	1.16047
2217.66	1.19072
2219.09	1.12294
2220.52	1.12182
2221.96	0.708781
2223.39	1.20164
2224.82	0.886123
2226.25	0.849443
2227.68	0.959529
2229.11	0.739933
2230.55	0.487391
2231.98	0.792395
2233.41	0.998681
2234.84	0.698172
2236.27	0.889194
2237.7	0.803551
2239.12	0.719405
2240.55	0.669416
2241.98	0.751242
2243.41	0.344679
2244.84	0.786529
2246.27	0.689662
2247.7	0.542743
2249.12	0.55738
2250.55	0.977666
2251.98	0.696019
2253.41	0.267861
2254.83	0.263088
2256.26	0.762567
2257.68	0.987284
2259.11	0.548851
2260.54	0.712894
2261.96	0.440573
2263.39	0.802532
2264.81	0.238879
2266.24	0.682444
2267.66	0.523973
2269.08	0.690175
2270.51	0.59542
2271.93	0.288554
2273.35	0.79572
2274.78	0.716723
2276.2	0.328251
2277.62	0.330851
2279.04	0.626936
2280.47	0.221942
2281.89	0.191798
2283.31	0.259453
2284.73	0.39243
2286.15	0.182837
2287.57	0.577495
2288.99	0.662385
2290.41	0.404496
2291.83	0.473526
2293.25	0.542698
2294.67	0.497383
2296.09	0.402856
2297.51	0.58658
2298.93	0.606663
2300.35	0.430214
2301.76	0.270193
2303.18	0.372704
2304.6	0.0486484
2306.02	0.151201
2307.44	0.237186
2308.85	0.355743
2310.27	0.260201
2311.69	0.361687
2313.1	0.364471
2314.52	0.301688
2315.93	0.255823
2317.35	0.391679
2318.76	0.4291
2320.18	0.614844
2321.59	0.0409551
2323.01	0.637214
2324.42	0.423198
2325.83	0.653076
2327.25	0.716601
2328.66	0.911297
2330.07	0.661158
2331.49	0.362522
2332.9	0.640943
2334.31	0.492031
2335.72	0.425632
2337.13	0.112255
2338.55	0.242297
2339.96	0.190666
2341.37	0.220526
2342.78	0.167919
2344.19	0.000545979
2345.6	-0.0681043
2347.01	0.109208
2348.42	0.41728
2349.83	0.364799
2351.24	0.181061
2352.65	0.388914
2354.05	0.187771
2355.46	0.214735
2356.87	0.0948439
2358.28	0.398075
2359.69	0.164547
2361.09	0.402266
2362.5	0.0557814
2363.91	0.374002
2365.31	-0.101274
2366.72	0.0387216
2368.13	-0.0795078
2369.53	0.303242
2370.94	0.218828
2372.34	0.457671
2373.75	0.35884
2375.15	0.115513
2376.56	0.0652213
2377.96	0.416255
2379.37	0.235462
2380.77	0.214321
2382.17	0.320498
2383.58	0.377712
2384.98	0.130662
2386.38	0.180052
2387.79	0.229936
2389.19	0.336359
2390.59	0.140789
2391.99	-0.0377522
2393.39	0.166495
2394.8	0.212069
2396.2	0.146818
2397.6	0.161517
2399	0.256056
2400.4	0.430337
2401.8	0.287116
2403.2	-0.0148406
2404.6	0.302312
2406	0.0472603
2407.4	0.124952
2408.79	0.0434241
2410.19	0.183653
2411.59	0.387245
2412.99	0.290329
2414.39	0.194374
2415.78	0.14698
2417.18	0.353826
2418.58	0.308041
2419.98	-0.0859051
2421.37	0.406977
2422.77	0.139328
2424.16	0.156613
2425.56	0.158087
2426.96	-0.0619779
2428.35	0.368427
2429.74	0.197138
2431.14	0.0420732
2432.53	0.363216
2433.93	0.350783
2435.32	0.242229
2436.72	-0.137523
2438.11	-0.28001
2439.5	0.18031
2440.9	-0.0272131
2442.29	-0.187354
2443.68	-0.125417
2445.07	0.205995
2446.47	-0.176444
2447.86	0.202043
2449.25	0.0257621
2450.64	-0.134377
2452.03	-0.0407987
2453.42	0.100712
2454.81	0.226933
2456.2	0.068881
2457.59	0.100901
2458.98	0.0853705
2460.37	0.385743
2461.76	0.353398
2463.15	0.0359931
2464.54	0.144991
2465.93	-0.0779619
2467.32	0.109636
2468.7	0.0445728
2470.09	0.137146
2471.48	-0.0386529
2472.87	0.257887
2474.25	0.0182557
2475.64	0.108859
2477.03	0.0575948
2478.41	-0.260612
2479.8	0.300568
2481.18	0.0142646
2482.57	0.27674
2483.95	0.00620937
2485.34	0.392442
2486.72	-0.113452
2488.11	0.270521
2489.49	0.0919514
2490.88	0.147183
2492.26	-0.0616345
2493.65	0.13448
2495.03	0.160491
2496.41	0.202843
2497.79	-0.0950074
2499.18	0.211424
2500.56	0.393467
2501.94	0.311934
2503.32	0.106314
2504.7	0.147265
2506.09	0.00278616
2507.47	0.104709
2508.85	0.144989
2510.23	-0.0448856
2511.61	-0.0498261
2512.99	0.0837383
2514.37	0.263638
2515.75	0.275532
2517.13	0.135006
2518.51	-0.188433
2519.89	0.222089
2521.26	0.0363631
2522.64	-0.119061
2524.02	-0.0918016
2525.4	0.148295
2526.78	-0.0233455
2528.15	-0.0270667
2529.53	0.243668
2530.91	-0.0927253
2532.28	0.499157
2533.66	0.0131416
2535.04	0.287347
2536.41	-0.274042
2537.79	0.227576
2539.16	0.0297418
2540.54	0.180645
2541.91	0.164232
2543.29	-0.246469
2544.66	-0.0192852
2546.04	0.178339
2547.41	-0.0478897
2548.78	-0.0611739
2550.16	0.138061
2551.53	-0.0878897
2552.9	0.247048
2554.27	-0.025774
2555.65	0.0801668
2557.02	-0.239027
2558.39	0.169707
2559.76	-0.240199
2561.13	-0.0433035
2562.51	-0.0430341
2563.88	-0.012043
2565.25	0.0950294
2566.62	-0.00987053
2567.99	0.1884
2569.36	0.26546
2570.73	0.175812
2572.1	0.222611
2573.47	0.0875807
2574.84	-0.16867
2576.2	-0.121706
2577.57	0.410417
2578.94	0.184308
2580.31	0.10958
2581.68	0.0345755
2583.05	0.201913
2584.41	0.338737
2585.78	0.126861
2587.15	0.0666876
2588.51	0.0218229
2589.88	0.067986
2591.24	0.159534
2592.61	0.0537829
2593.98	0.0687122
2595.34	-0.00792646
2596.71	0.0207434
2598.07	0.079093
2599.44	-0.0896749
2600.8	0.195133
2602.16	0.0269194
2603.53	-0.0198913
2604.89	-0.232245
2606.26	0.00824547
2607.62	-0.188925
2608.98	-0.0398231
2610.34	-0.0724411
2611.71	0.14995
2613.07	0.0403318
2614.43	-0.0696101
2615.79	0.120611
2617.15	0.115728
2618.52	-0.128346
2619.88	-0.0123057
2621.24	-0.120218
2622.6	-0.30231
2623.96	-0.304799
2625.32	-0.00884676
2626.68	0.0926862
2628.04	-0.297892
2629.4	0.324443
2630.75	-0.00653839
2632.11	-0.128935
2633.47	-0.0728993
2634.83	-0.0169616
2636.19	-0.183578
2637.55	0.242815
2638.9	0.387243
2640.26	-0.326535
2641.62	0.0993109
2642.98	0.125871
2644.33	0.137767
2645.69	0.07585
2647.04	-0.0009799
2648.4	0.349012
2649.76	-0.14101
2651.11	0.0898218
2652.47	0.114359
2653.82	0.0949888
2655.18	0.0175509
2656.53	-0.190801
2657.88	0.202044
2659.24	-0.297272
2660.59	0.47631
2661.95	0.00682259
2663.3	-0.214249
2664.65	0.0169187
2666	0.276415
2667.36	0.476871
2668.71	-0.022027
2670.06	0.193034
2671.41	-0.100733
2672.76	0.129439
2674.12	0.069345
2675.47	0.241972
2676.82	0.356829
2678.17	0.196523
2679.52	0.181916
2680.87	-0.208884
2682.22	-0.0333986
2683.57	0.0704417
2684.92	0.0444784
2686.27	-0.0101671
2687.62	-0.0068574
2688.97	-0.178536
2690.31	-0.00293398
2691.66	0.171386
2693.01	-0.163265
2694.36	0.081768
2695.71	-0.0793891
2697.05	0.107695
2698.4	0.049355
2699.75	0.194926
2701.09	-0.237482
2702.44	0.301436
2703.78	-0.0279307
2705.13	0.150206
2706.48	0.169019
2707.82	0.187685
2709.17	0.118997
2710.51	0.180694
2711.86	0.198679
2713.2	0.158463
2714.54	0.278077
2715.89	0.266877
2717.23	-0.12256
2718.57	0.0986423
2719.92	-0.0877118
2721.26	0.205829
2722.6	0.484568
2723.95	0.486457
2725.29	0.327925
2726.63	0.271024
2727.97	0.330346
2729.31	-0.0907278
2730.65	0.477639
2732	0.24568
2733.34	0.595724
2734.68	0.364018
2736.02	0.307045
2737.36	-0.0406818
2738.7	0.106094
2740.04	-0.212644
2741.38	0.00637531
2742.72	0.16675
2744.05	0.370168
2745.39	0.108125
2746.73	-0.00878572
2748.07	0.396834
2749.41	0.0476718
2750.75	0.46762
2752.08	0.582989
2753.42	0.16223
2754.76	0.292439
2756.09	0.0895486
2757.43	-0.0262213
2758.77	0.104349
2760.1	0.307504
2761.44	0.192586
2762.78	-0.196878
2764.11	0.166327
2765.44	0.312486
2766.78	0.0387788
2768.11	0.126147
2769.45	0.169215
2770.78	0.0956306
2772.12	0.0500774
2773.45	-0.0105414
2774.78	0.144823
2776.12	0.299885
2777.45	0.181502
2778.78	-0.0369539
2780.12	-0.0535316
2781.45	0.188646
2782.78	0.487982
2784.11	0.457035
2785.44	-0.276163
2786.78	0.13757
2788.11	0.25054
2789.44	-0.079587
2790.77	0.0774655
2792.1	0.149181
2793.43	0.349855
2794.76	0.550493
2796.09	-0.0207672
2797.42	0.0221457
2798.75	0.0646544
2800.08	-0.164327
2801.4	-0.0223732
2802.73	0.318938
2804.06	0.00419378
2805.39	-0.210792
2806.72	0.243073
2808.05	0.0558348
2809.37	0.0391359
2810.7	0.178691
2812.03	0.00625086
2813.35	-0.0091877
2814.68	0.302461
2816.01	0.388167
2817.33	0.417982
2818.66	0.150595
2819.98	0.350963
2821.31	0.154177
2822.63	-0.0713692
2823.96	0.326144
2825.28	0.468264
2826.61	0.171354
2827.93	0.327997
2829.25	0.0602913
2830.58	0.387506
2831.9	0.219413
2833.23	0.235317
2834.55	0.732242
2835.87	0.153158
2837.19	0.394566
2838.52	0.47996
2839.84	0.692442
2841.16	0.523152
2842.48	0.778284
2843.8	0.906591
2845.12	0.993005
2846.44	0.82549
2847.77	1.28009
2849.08	1.32487
2850.4	1.28465
2851.73	1.75288
2853.05	1.6695
2854.36	1.59995
2855.68	1.51616
2857	1.63014
2858.32	1.3204
2859.64	1.7451
2860.96	1.76007
2862.28	1.74656
2863.59	1.8598
2864.91	1.87401
2866.23	2.17032
2867.55	2.05767
2868.86	2.49531
2870.18	2.53838
2871.5	2.72254
2872.81	2.87823
2874.13	3.03327
2875.44	3.13102
2876.76	2.9462
2878.07	3.0986
2879.39	2.87087
2880.7	2.92474
2882.02	2.85274
2883.33	3.10466
2884.65	3.16063
2885.96	2.73977
2887.28	3.28758
2888.59	2.88063
2889.9	2.88009
2891.21	3.0191
2892.53	3.10143
2893.84	3.14151
2895.15	2.67773
2896.46	3.43269
2897.78	3.26444
2899.09	3.26498
2900.4	3.51795
2901.71	3.1138
2903.02	3.73098
2904.33	3.9006
2905.64	3.46899
2906.95	3.82109
2908.26	4.21585
2909.57	4.12172
2910.88	4.25193
2912.19	4.15822
2913.5	4.41386
2914.81	4.99038
2916.12	4.9354
2917.43	4.83706
2918.73	4.91977
2920.04	5.07218
2921.35	5.1691
2922.66	5.51864
2923.96	5.19835
2925.27	5.46614
2926.58	5.74848
2927.88	6.17067
2929.19	6.03333
2930.5	5.89546
2931.8	5.96684
2933.11	5.85624
2934.41	6.34659
2935.72	6.12419
2937.02	5.90195
2938.33	5.9314
2939.63	6.17067
2940.94	5.53003
2942.24	5.3093
2943.54	5.22928
2944.85	5.48589
2946.15	5.21224
2947.45	5.05081
2948.76	4.6931
2950.06	4.72621
2951.36	4.19771
2952.66	4.50775
2953.97	4.3125
2955.27	4.71886
2956.57	4.13202
2957.87	4.55461
2959.17	4.18152
2960.47	3.88041
2961.77	3.97309
2963.07	3.9964
2964.37	3.78063
2965.67	3.80223
2966.97	4.08949
2968.27	3.65881
2969.57	3.86
2970.87	3.63918
2972.17	3.81236
2973.47	3.31041
2974.77	2.82222
2976.07	3.07951
2977.36	2.89934
2978.66	3.08388
2979.96	2.97131
2981.26	2.64661
2982.55	2.94054
2983.85	2.82669
2985.15	2.54508
2986.44	2.25069
2987.74	2.33682
2989.03	2.19886
2990.33	2.31402
2991.63	2.2742
2992.92	1.69947
2994.21	1.86861
2995.51	1.69964
2996.8	1.7829
2998.1	1.48695
2999.39	1.48595
3000.69	1.45724
3001.98	1.31679
3003.27	1.30281
3004.57	1.26085
3005.86	1.19067
3007.15	1.05005
3008.44	0.922882
3009.74	1.06083
3011.03	0.932503
3012.32	0.79002
3013.61	0.996448
3014.9	0.826407
3016.19	0.754555
3017.48	0.738959
3018.78	0.709779
3020.07	0.889242
3021.36	0.553864
3022.65	0.773831
3023.94	0.590234
3025.23	0.295432
3026.51	0.721188
3027.8	0.703576
3029.09	0.451677
3030.38	0.629436
3031.67	0.752752
3032.96	0.531549
3034.24	0.572887
3035.53	0.517196
3036.82	0.47437
3038.11	0.416501
3039.39	0.605064
3040.68	0.352135
3041.97	0.579536
3043.25	0.559441
3044.54	0.512519
3045.83	1.04105
3047.11	0.79144
3048.4	0.789618
3049.68	0.243385
3050.97	0.599079
3052.25	0.846067
3053.54	0.779156
3054.82	0.493429
3056.11	0.970748
3057.39	0.615227
3058.67	0.763481
3059.96	0.897634
3061.24	0.705202
3062.52	0.622387
3063.81	0.98924
3065.09	0.636486
3066.37	0.869308
3067.65	0.531772
3068.94	0.602325
3070.22	0.835835
3071.5	0.579015
3072.78	0.402852
3074.06	0.375323
3075.34	0.306283
3076.62	0.630789
3077.9	0.18145
3079.18	0.492945
3080.46	0.00488329
3081.74	0.440289
3083.02	0.523821
3084.3	0.363558
3085.58	0.0674767
3086.86	0.381702
3088.14	0.383171
3089.42	0.546889
3090.69	0.357295
3091.97	0.0997176
3093.25	0.0863857
3094.53	0.357935
3095.8	0.0871263
3097.08	0.155271
3098.36	0.25034
3099.63	0.0199528
3100.91	0.344903
3102.19	0.236234
3103.46	0.330771
3104.74	0.439036
3106.01	0.0063343
3107.29	0.00727034
3108.56	0.19826
3109.84	0.119212
3111.11	0.149017
3112.39	0.206359
3113.66	-0.00707865
3114.94	0.172325
3116.21	0.27005
3117.48	-0.0126781
3118.76	0.12414
3120.03	0.300714
3121.3	0.178126
3122.57	0.136364
3123.85	0.270444
3125.12	0.404379
3126.39	0.213552
3127.66	0.456065
3128.93	0.211754
3130.21	0.129959
3131.48	0.169804
3132.75	0.24991
3134.02	0.356551
3135.29	-0.0369358
3136.56	0.10913
3137.83	0.133136
3139.1	0.0893116
3140.37	0.126027
3141.64	-0.187103
3142.91	0.0915327
3144.17	0.114784
3145.44	-0.0227175
3146.71	-0.0658827
3147.98	-0.175684
3149.25	0.0362239
