200.407	0.25471
202.221	0.271139
204.035	0.288533
205.849	0.598644
207.665	-0.379711
209.478	-0.21551
211.291	0.0933485
213.104	0.0123644
214.916	0.0275536
216.73	-0.248631
218.541	0.299067
220.352	0.0720224
222.163	0.136327
223.973	0.249706
225.785	-0.0231466
227.595	0.404836
229.404	0.107739
231.213	0.317266
233.022	-0.0285378
234.83	-0.132621
236.638	0.246516
238.448	-0.240368
240.255	0.648792
242.062	0.262458
243.868	0.359509
245.675	0.384241
247.48	0.117934
249.286	-0.0300722
251.091	-0.156612
252.896	0.414462
254.702	-0.222692
256.506	0.15301
258.31	0.553113
260.113	0.111172
261.916	-0.353019
263.719	0.846469
265.521	-0.121307
267.323	0.356874
269.125	0.569832
270.926	0.203516
272.727	-0.694331
274.527	0.0461302
276.328	0.32701
278.127	0.02777
279.927	0.184663
281.726	-0.0936747
283.525	0.324213
285.323	0.427715
287.121	0.266263
288.919	0.392825
290.716	0.184406
292.513	-0.142211
294.31	-0.251768
296.104	0.0942793
297.9	0.345387
299.696	0.310083
301.491	0.84789
303.286	0.644409
305.081	0.249059
306.875	0.544951
308.669	0.554215
310.463	0.158897
312.256	0.265096
314.047	0.229782
315.839	0.86283
317.631	-0.121784
319.423	0.371459
321.215	1.08064
323.006	0.861275
324.794	0.355719
326.585	-0.00707626
328.375	0.824054
330.165	0.914512
331.954	0.286447
333.741	0.685145
335.53	0.196709
337.318	0.471929
339.106	0.482007
340.894	0.466725
342.679	-0.553298
344.466	-0.210571
346.253	-0.369318
348.039	0.785885
349.823	0.699582
351.608	0.470166
353.393	0.0494671
355.176	-0.0140915
356.961	-0.150257
358.745	0.355988
360.529	0.0270596
362.31	0.411669
364.093	0.462105
365.876	0.0604057
367.657	0.394527
369.439	0.134425
371.221	-0.0548506
373	0.29984
374.781	0.133449
376.56	0.67564
378.34	0.745485
380.12	0.580442
381.898	0.251987
383.677	0.325029
385.456	-0.564707
387.233	0.00428391
389.011	-0.224877
390.787	0.298455
392.565	0.0708714
394.34	-0.0622292
396.117	0.227722
397.894	0.00109768
399.668	0.737271
401.444	0.345691
403.217	0.305854
404.993	0.852511
406.766	0.341625
408.54	0.135579
410.312	0.422239
412.086	0.215964
413.858	0.244755
415.631	0.36801
417.402	0.0226812
419.174	0.288004
420.944	0.530152
422.716	0.0914268
424.486	0.450188
426.257	0.150831
428.025	0.179396
429.794	0.184044
431.564	0.000887871
433.332	0.28739
435.101	-0.200308
436.868	0.203816
438.637	0.372659
440.403	0.000502586
442.169	0.447804
443.937	0.095686
445.703	0.28118
447.468	0.161008
449.234	0.204287
450.999	0.668101
452.765	0.174299
454.528	0.777809
456.292	0.284917
458.057	0.44475
459.819	-0.326445
461.582	-0.0960426
463.344	0.600198
465.107	0.740393
466.868	0.534672
468.629	0.191903
470.392	0.641239
472.152	0.882272
473.912	-0.134309
475.672	0.220869
477.433	0.504448
479.192	0.576704
480.951	0.671297
482.709	0.765974
484.469	0.0698214
486.226	0.493355
487.984	0.802608
489.74	0.437774
491.499	0.656935
493.255	0.339719
495.011	0.630161
496.767	0.382691
498.522	0.462528
500.277	0.471754
502.033	0.433491
503.788	0.84064
505.541	0.589213
507.295	0.406793
509.048	0.411036
510.801	0.43738
512.553	0.674092
514.308	0.156478
516.06	0.437652
517.811	0.435384
519.562	0.408703
521.313	0.475346
523.063	0.705866
524.814	0.302209
526.563	0.391595
528.313	-0.0818129
530.062	-0.0861254
531.811	0.073185
533.559	0.535925
535.308	0.669527
537.055	0.451084
538.803	0.161745
540.55	0.268429
542.297	0.467313
544.043	0.455974
545.789	0.351677
547.535	0.549501
549.281	0.700727
551.026	0.643412
552.771	0.424478
554.515	0.136868
556.259	-0.172995
558.003	0.279085
559.747	0.154761
561.49	0.261347
563.233	0.0692492
564.975	0.521546
566.717	-0.0368938
568.459	0.416171
570.2	-0.346512
571.942	0.108385
573.68	0.289266
575.421	-0.262391
577.161	0.0591488
578.901	-0.00818539
580.64	-0.419404
582.379	-0.00367832
584.118	0.687892
585.855	0.0452251
587.593	0.0681982
589.331	0.872364
591.068	0.226283
592.805	0.799111
594.54	0.520508
596.277	-0.333223
598.013	-0.220675
599.749	0.0756311
601.484	-0.0198622
603.217	-0.0473909
604.952	0.153745
606.687	0.39951
608.421	-0.297278
610.153	0.429564
611.886	0.0778923
613.619	0.804857
615.35	0.24841
617.083	0.448609
618.815	0.648227
620.547	0.114202
622.276	0.311745
624.008	-0.0632658
625.738	-0.0951252
627.467	0.467518
629.197	-0.201
630.927	-0.66182
632.655	0.407939
634.384	0.155199
636.113	0.290213
637.839	0.263992
639.568	0.509284
641.293	0.318345
643.021	0.262204
644.748	0.409925
646.473	-0.0565844
648.2	0.593046
649.924	0.654009
651.65	0.627568
653.376	0.172818
655.099	0.311936
656.824	-0.206946
658.546	0.459228
660.271	0.350703
661.993	0.263452
663.716	-0.328678
665.438	-0.100395
667.161	0.0120754
668.881	0.123905
670.604	0.282052
672.324	-0.0157146
674.045	0.123379
675.765	0.14995
677.486	0.292421
679.204	0.527223
680.925	-0.134908
682.643	-0.224483
684.361	0.512767
686.08	0.327789
687.797	0.740146
689.516	0.783064
691.232	0.0881891
692.95	0.659677
694.666	0.12488
696.382	0.0960169
698.099	0.388437
699.813	0.127294
701.528	0.440363
703.244	0.430439
704.958	0.305067
706.673	0.385961
708.387	0.787422
710.099	0.363009
711.814	0.328171
713.526	-0.0728416
715.238	0.143714
716.949	-0.00548077
718.663	0.165015
720.374	0.631666
722.084	1.1432
723.796	0.607274
725.506	0.504115
727.216	0.787013
728.925	0.774029
730.636	0.397914
732.345	0.271349
734.053	0.57474
735.761	1.23921
737.471	0.660733
739.178	0.535162
740.885	1.04182
742.592	0.512618
744.298	0.435528
746.006	0.922318
747.712	0.982588
749.417	0.594192
751.122	0.521903
752.827	1.10304
754.532	0.695704
756.236	1.34719
757.942	0.964934
759.645	1.73258
761.348	1.21727
763.051	0.995028
764.753	0.885142
766.456	0.887114
768.158	1.18136
769.859	1.38343
771.56	1.78719
773.261	0.674531
774.964	1.43827
776.664	1.43365
778.364	1.38498
780.064	1.38294
781.763	1.22358
783.462	2.12798
785.16	1.90002
786.859	1.33024
788.557	1.86669
790.255	1.22338
791.952	1.82153
793.649	1.31064
795.346	1.52229
797.042	1.66673
798.738	0.889091
800.434	1.307
802.127	1.14084
803.823	1.80756
805.517	1.55195
807.212	1.40818
808.906	1.84736
810.6	1.74629
812.293	2.02567
813.987	2.14722
815.68	1.12657
817.372	1.2931
819.064	1.88405
820.754	1.60328
822.446	1.59106
824.137	1.28972
825.828	1.56939
827.519	1.71708
829.209	1.35502
830.897	1.35209
832.587	1.66364
834.276	1.28645
835.966	1.15514
837.654	1.29136
839.341	1.15877
841.029	1.20336
842.717	1.06804
844.404	1.44616
846.091	1.35563
847.776	1.08773
849.463	1.04544
851.149	1.47553
852.833	1.50474
854.519	1.49004
856.204	1.11582
857.889	0.987191
859.572	0.969393
861.256	1.37779
862.94	1.64999
864.622	0.74931
866.305	0.906735
867.988	0.996027
869.669	1.37815
871.351	1.42175
873.033	1.28469
874.713	1.0347
876.395	0.897474
878.074	0.873084
879.755	0.75831
881.435	1.07213
883.114	1.02414
884.794	1.02034
886.471	0.563921
888.15	0.760695
889.829	1.27163
891.506	0.676327
893.184	1.20668
894.861	0.880067
896.538	1.51972
898.214	0.877122
899.891	0.90801
901.566	1.18458
903.242	1.14664
904.916	0.840449
906.592	0.579837
908.266	0.989242
909.941	0.930807
911.614	1.07354
913.288	0.972133
914.961	0.56041
916.635	1.03684
918.306	0.780965
919.979	0.503506
921.651	1.02343
923.321	1.07928
924.994	1.13651
926.664	1.34991
928.336	0.770131
930.005	1.16275
931.674	1.07046
933.345	0.559317
935.014	1.41602
936.682	0.971675
938.352	0.969232
940.019	0.945818
941.687	0.592592
943.356	0.923913
945.022	1.32151
946.689	0.592451
948.357	1.09785
950.022	0.277254
951.688	0.625308
953.355	0.267381
955.02	0.440125
956.684	0.879796
958.348	0.771048
960.014	0.753002
961.678	0.736351
963.341	1.51538
965.004	0.723558
966.669	0.769403
968.331	0.989772
969.993	0.478114
971.655	1.16023
973.316	0.758839
974.979	0.579928
976.64	0.513177
978.3	0.91228
979.961	0.947124
981.62	0.981665
983.28	0.406233
984.941	0.780967
986.6	0.777498
988.259	0.706034
989.917	0.721947
991.575	0.715136
993.233	0.111808
994.89	0.215637
996.547	0.937181
998.204	0.886159
999.86	1.60625
1001.52	2.23697
1003.17	2.05217
1004.83	1.36148
1006.49	0.759551
1008.14	0.268394
1009.79	1.20458
1011.45	0.451312
1013.1	0.378805
1014.76	0.021986
1016.41	0.607247
1018.06	0.601566
1019.72	-0.168884
1021.37	0.220879
1023.02	0.370923
1024.67	-0.00275612
1026.32	0.34529
1027.97	0.452954
1029.62	1.06252
1031.27	0.753412
1032.92	1.20716
1034.57	0.677073
1036.22	0.996707
1037.87	0.487246
1039.52	0.435608
1041.17	0.536866
1042.82	0.40001
1044.47	0.177911
1046.11	0.696142
1047.76	0.129979
1049.41	-0.260962
1051.06	0.196178
1052.7	0.523833
1054.35	0.308729
1055.99	0.11527
1057.64	0.117146
1059.28	0.423005
1060.93	0.271752
1062.57	0.141557
1064.22	0.380219
1065.86	0.183124
1067.5	0.485052
1069.15	0.221049
1070.79	-0.0867453
1072.43	-0.177341
1074.08	0.036293
1075.72	1.11827
1077.36	0.639493
1079	0.725783
1080.64	0.509197
1082.28	0.791371
1083.92	0.834237
1085.56	0.33371
1087.2	0.720114
1088.84	-0.000117302
1090.48	0.447548
1092.12	0.136798
1093.76	0.603619
1095.39	0.443993
1097.03	0.759624
1098.67	0.58053
1100.31	0.683096
1101.94	-0.224071
1103.58	-0.204095
1105.22	0.161134
1106.85	0.526795
1108.49	0.591067
1110.12	0.288857
1111.76	0.522774
1113.39	0.669106
1115.03	0.792643
1116.66	0.464932
1118.29	0.523627
1119.93	0.175779
1121.56	1.09253
1123.19	0.746609
1124.82	0.316295
1126.46	0.400362
1128.09	0.613386
1129.72	0.591782
1131.35	0.271399
1132.98	0.293381
1134.61	-0.261887
1136.24	-0.176353
1137.87	-0.155814
1139.5	-0.00813389
1141.13	0.138557
1142.76	0.519369
1144.39	0.345363
1146.01	0.513208
1147.64	-0.255914
1149.27	0.0840464
1150.9	-0.36384
1152.53	-0.44948
1154.15	0.231068
1155.78	0.378798
1157.4	0.228444
1159.03	0.312445
1160.65	-0.666105
1162.28	0.312685
1163.9	-0.366187
1165.53	-0.385497
1167.15	0.998293
1168.78	0.212464
1170.4	1.12579
1172.02	-0.00286674
1173.65	0.354353
1175.27	-0.0113726
1176.89	0.174164
1178.51	0.253644
1180.14	0.545269
1181.76	0.562304
1183.38	0.17824
1185	-0.0996761
1186.62	0.170991
1188.24	0.207779
1189.86	-0.0101509
1191.48	-0.292403
1193.1	-0.133689
1194.71	0.233829
1196.33	0.390635
1197.95	0.129052
1199.57	0.350623
1201.19	0.32306
1202.8	1.02868
1204.42	0.46286
1206.04	1.02608
1207.65	1.02708
1209.27	0.632046
1210.88	0.84125
1212.5	0.360777
1214.12	0.753963
1215.73	0.436628
1217.35	0.887894
1218.96	0.796986
1220.57	0.955231
1222.19	0.574557
1223.8	1.52181
1225.41	0.64695
1227.03	0.540266
1228.64	0.952027
1230.25	1.01313
1231.86	0.951287
1233.47	0.766575
1235.08	1.01704
1236.69	1.51666
1238.31	0.880398
1239.92	0.885514
1241.52	0.808076
1243.13	1.39235
1244.74	0.900152
1246.35	0.986329
1247.96	1.03018
1249.57	1.54919
1251.18	0.474833
1252.78	1.61419
1254.39	0.727032
1256	0.813003
1257.6	1.14835
1259.21	0.843435
1260.82	0.932443
1262.42	0.814886
1264.03	0.69727
1265.63	1.44956
1267.24	0.81284
1268.84	0.838412
1270.45	0.966727
1272.05	1.30143
1273.65	1.40707
1275.26	0.848447
1276.86	0.620794
1278.46	0.848281
1280.06	0.433139
1281.67	0.266441
1283.27	0.96885
1284.87	1.13348
1286.47	0.719952
1288.07	0.679593
1289.67	1.38401
1291.27	1.63416
1292.87	0.437897
1294.47	1.26582
1296.07	0.935673
1297.67	0.893329
1299.27	1.01458
1300.87	1.29923
1302.47	1.17027
1304.06	1.45226
1305.66	1.23957
1307.26	1.02684
1308.85	1.67593
1310.45	1.27844
1312.05	1.61913
1313.64	1.61213
1315.24	1.6061
1316.83	1.60098
1318.43	1.08637
1320.02	2.01991
1321.62	1.42335
1323.21	1.57939
1324.8	1.50985
1326.4	0.830106
1327.99	2.05733
1329.59	1.68227
1331.18	1.55232
1332.77	2.03088
1334.36	1.98593
1335.95	1.78123
1337.54	1.31515
1339.14	1.41339
1340.73	1.40927
1342.32	2.06723
1343.91	1.3952
1345.5	1.12519
1347.09	1.297
1348.67	1.36981
1350.26	1.22461
1351.85	1.34202
1353.44	0.501575
1355.03	0.662242
1356.62	1.34271
1358.2	1.60291
1359.79	0.823659
1361.38	0.523135
1362.96	0.661035
1364.55	0.539274
1366.14	0.93588
1367.72	1.23318
1369.31	1.29246
1370.89	1.0545
1372.48	1.11637
1374.06	0.642047
1375.64	1.16323
1377.23	1.36618
1378.81	1.17069
1380.39	1.51151
1381.98	1.29398
1383.56	0.916256
1385.14	0.895689
1386.72	1.15284
1388.3	0.635412
1389.89	0.496149
1391.47	0.99274
1393.05	0.735929
1394.63	0.499424
1396.21	1.33364
1397.79	0.759326
1399.37	1.19508
1400.95	0.599673
1402.52	1.13263
1404.1	0.814251
1405.68	0.813031
1407.26	0.575393
1408.84	1.36612
1410.42	0.556888
1411.99	0.715696
1413.57	1.18972
1415.15	1.05086
1416.72	0.576092
1418.3	1.10666
1419.87	0.848952
1421.45	0.671188
1423.02	0.888615
1424.6	0.890929
1426.17	0.97312
1427.75	1.23297
1429.32	0.665913
1430.89	1.10187
1432.47	1.55635
1434.04	1.32113
1435.61	1.75427
1437.18	2.148
1438.76	1.81495
1440.33	1.91537
1441.9	2.17393
1443.47	1.78465
1445.04	1.98534
1446.61	1.98967
1448.18	2.15141
1449.75	2.13652
1451.32	2.06308
1452.89	2.52113
1454.46	1.62248
1456.03	1.68749
1457.6	1.75194
1459.16	2.09074
1460.73	1.91618
1462.3	1.32671
1463.87	1.30641
1465.43	1.79612
1467	2.10813
1468.56	1.47772
1470.13	1.90846
1471.7	1.24138
1473.26	1.45826
1474.83	0.656095
1476.39	0.560391
1477.96	0.582438
1479.52	0.80044
1481.08	0.469506
1482.65	1.02044
1484.21	0.767745
1485.77	0.749905
1487.34	0.868496
1488.9	1.24035
1490.46	0.592664
1492.02	0.393606
1493.58	0.310208
1495.15	0.576595
1496.71	0.627014
1498.27	0.949503
1499.83	1.11616
1501.39	0.157439
1502.95	0.287813
1504.51	-0.0656796
1506.07	-0.166637
1507.63	0.389637
1509.18	0.963222
1510.74	0.569634
1512.3	0.426753
1513.86	0.399355
1515.41	0.026165
1516.97	0.537517
1518.53	0.300458
1520.08	0.658276
1521.64	0.498876
1523.2	0.282193
1524.75	0.237167
1526.31	0.343917
1527.86	0.849454
1529.42	1.04883
1530.97	0.336168
1532.52	0.384388
1534.08	0.774097
1535.63	0.690921
1537.19	0.854402
1538.74	0.848309
1540.29	1.06886
1541.84	0.949985
1543.4	0.492485
1544.95	0.674961
1546.5	0.988341
1548.05	1.00072
1549.6	0.956793
1551.15	1.04418
1552.7	1.01962
1554.25	1.23892
1555.8	0.80547
1557.35	0.598145
1558.9	0.821877
1560.45	0.618111
1562	0.770245
1563.54	1.0913
1565.09	1.24503
1566.64	1.04434
1568.19	1.17934
1569.73	0.95937
1571.28	1.67235
1572.83	0.966386
1574.37	1.34297
1575.92	0.879537
1577.47	1.10698
1579.01	0.625363
1580.56	1.52591
1582.1	1.15753
1583.64	1.40621
1585.19	1.46887
1586.73	1.23291
1588.28	1.35227
1589.82	1.39669
1591.36	1.21611
1592.9	1.48437
1594.45	1.30297
1595.99	1.73978
1597.53	1.52127
1599.07	1.20946
1600.61	1.32945
1602.15	1.54385
1603.69	1.28901
1605.23	1.72843
1606.77	1.62191
1608.31	1.32556
1609.85	1.00829
1611.39	1.23395
1612.93	1.06324
1614.47	1.0229
1616.01	0.663347
1617.55	1.91663
1619.08	1.14625
1620.62	0.920997
1622.16	1.31498
1623.7	0.94202
1625.23	1.41156
1626.77	1.59952
1628.3	0.757204
1629.84	1.01764
1631.37	1.44506
1632.91	1.29255
1634.44	1.38315
1635.98	1.00793
1637.51	1.15607
1639.05	1.19281
1640.58	1.8446
1642.11	1.15399
1643.65	1.28232
1645.18	1.44663
1646.71	1.74002
1648.24	1.95833
1649.78	2.08383
1651.31	1.93174
1652.84	2.04069
1654.37	1.74275
1655.9	1.46418
1657.43	1.38956
1658.96	1.75882
1660.49	1.73778
1662.02	1.60438
1663.55	2.08011
1665.08	1.09533
1666.61	1.40432
1668.14	1.99047
1669.66	1.9506
1671.19	1.47003
1672.72	1.81971
1674.25	1.63563
1675.77	1.87489
1677.3	1.08261
1678.83	1.5961
1680.35	1.40941
1681.88	1.42434
1683.4	0.888036
1684.93	1.25165
1686.45	1.48674
1687.98	0.860531
1689.5	1.49936
1691.03	1.35045
1692.55	0.323333
1694.07	0.979999
1695.6	0.977687
1697.12	0.792425
1698.64	0.990549
1700.17	0.73179
1701.69	0.801173
1703.21	1.08864
1704.73	0.373575
1706.25	0.223317
1707.77	0.709338
1709.29	0.504215
1710.81	0.263212
1712.33	0.131556
1713.85	0.61626
1715.37	0.195068
1716.89	0.0820169
1718.41	0.565443
1719.93	0.614594
1721.45	0.230781
1722.97	-0.386336
1724.49	0.295434
1726	0.473294
1727.52	0.166146
1729.04	0.111983
1730.55	0.169048
1732.07	0.174629
1733.59	0.40373
1735.1	0.028461
1736.62	0.101038
1738.13	0.307551
1739.65	0.681371
1741.16	0.577407
1742.68	0.124591
1744.19	0.280435
1745.7	-0.200499
1747.22	0.386851
1748.73	0.241477
1750.24	0.213745
1751.76	0.16037
1753.27	-0.224645
1754.78	0.421903
1756.29	0.738092
1757.8	0.437944
1759.31	0.309875
1760.83	0.564892
1762.34	0.175502
1763.85	0.0427499
1765.36	0.296573
1766.87	-0.0145202
1768.38	0.105141
1769.89	0.191327
1771.39	0.258453
1772.9	-0.106909
1774.41	-0.155809
1775.92	0.23911
1777.43	0.237531
1778.94	0.196174
1780.44	0.0618868
1781.95	0.235192
1783.46	0.383422
1784.96	0.525362
1786.47	0.0840425
1787.97	0.252433
1789.48	0.190376
1790.99	0.516922
1792.49	-0.00545263
1794	0.51627
1795.5	0.0161209
1797	-0.0028553
1798.51	0.110133
1800.01	-0.047359
1801.51	0.303588
1803.02	0.177279
1804.52	0.305898
1806.02	0.104125
1807.53	0.225333
1809.03	0.193141
1810.53	0.419494
1812.03	0.255563
1813.53	0.245975
1815.03	0.108571
1816.53	-0.123058
1818.03	-0.0214067
1819.53	0.236447
1821.03	-0.0770726
1822.53	0.11948
1824.03	0.0328283
1825.53	0.150733
1827.03	0.0290852
1828.53	-0.190511
1830.02	-0.278846
1831.52	0.15978
1833.02	-0.168824
1834.52	-0.121093
1836.01	0.140645
1837.51	0.0386224
1839.01	-0.0362272
1840.5	0.175989
1842	0.192753
1843.49	-0.0455427
1844.99	0.369054
1846.48	0.191803
1847.98	0.167691
1849.47	0.0359464
1850.97	-0.181408
1852.46	0.436052
1853.95	0.216492
1855.45	-0.0700426
1856.94	0.00628805
1858.43	-0.0318336
1859.93	-0.174959
1861.42	-0.0898895
1862.91	0.325321
1864.4	0.244931
1865.89	0.315789
1867.38	-0.187291
1868.87	-0.243694
1870.36	0.371561
1871.85	0.147099
1873.34	0.283349
1874.83	0.396665
1876.32	0.127808
1877.81	0.289942
1879.3	0.116642
1880.79	0.206268
1882.28	0.335619
1882.52	0.358245
1884.02	-0.235528
1885.51	-0.202178
1887.01	-0.256648
1888.5	0.0540924
1889.99	0.242868
1891.49	0.241011
1892.98	-0.246296
1894.47	0.102526
1895.97	-0.22545
1897.46	0.264552
1898.95	0.319787
1900.44	0.426358
1901.93	0.270581
1903.42	0.0959477
1904.91	-0.288373
1906.4	0.612732
1907.89	-0.327832
1909.38	0.191016
1910.87	0.519382
1912.36	-0.00164318
1913.85	0.0677171
1915.34	0.0504279
1916.83	-0.0711484
1918.32	0.34419
1919.8	0.221772
1921.29	-0.108491
1922.78	0.237101
1924.27	-0.0226555
1925.75	0.445674
1927.24	-0.331548
1928.73	-0.121466
1930.21	0.261809
1931.7	0.107629
1933.18	-0.04775
1934.67	0.332083
1936.15	0.070025
1937.64	-0.0198317
1939.12	0.702127
1940.61	0.335568
1942.09	-0.133359
1943.57	0.17529
1945.06	0.0188446
1946.54	0.155878
1948.02	-0.293299
1949.51	0.221942
1950.99	-0.0389266
1952.47	-0.128192
1953.95	-0.149028
1955.43	0.173769
1956.91	-0.070219
1958.4	-0.00442076
1959.88	0.164847
1961.36	-0.0599537
1962.84	0.16124
1964.32	-0.0119553
1965.8	0.225583
1967.27	0.308256
1968.75	-0.0715466
1970.23	0.163995
1971.71	0.381904
1973.19	0.428772
1974.67	0.0322084
1976.14	0.266984
1977.62	-0.247844
1979.1	0.157244
1980.58	-0.0505819
1982.05	-0.0202885
1983.53	0.111631
1985	0.293998
1986.48	-0.0838027
1987.95	0.199892
1989.43	-0.143138
1990.9	0.141008
1992.38	0.171901
1993.85	-0.455696
1995.33	0.286698
1996.8	0.268744
1998.27	0.132555
1999.75	-0.105193
2001.22	0.213629
2002.69	0.396801
2004.16	-0.111495
2005.64	0.223474
2007.11	0.188235
2008.58	0.0191135
2010.05	0.0696521
2011.52	-0.0140452
2012.99	0.0874662
2014.46	0.49151
2015.93	0.659172
2017.4	0.186834
2018.87	-0.0168505
2020.34	0.13205
2021.81	0.247098
2023.28	0.379093
2024.75	0.0586395
2026.22	-0.344485
2027.69	-0.00835323
2029.15	-0.190974
2030.62	-0.0370398
2032.09	0.201671
2033.56	0.138784
2035.02	0.327742
2036.49	0.130128
2037.96	0.133606
2039.42	0.0359087
2040.89	-0.0618691
2042.35	0.244161
2043.82	0.11369
2045.28	-0.0497847
2046.75	0.342795
2048.21	0.348618
2049.67	0.202485
2051.14	0.122822
2052.6	0.311652
2054.07	0.246014
2055.53	-0.445003
2056.99	0.279258
2058.45	-0.0929604
2059.92	0.461396
2061.38	-0.0450773
2062.84	-0.230736
2064.3	0.190363
2065.76	0.04003
2067.22	-0.109601
2068.68	0.246154
2070.14	0.0467629
2071.6	-0.186296
2073.06	-0.0659394
2074.52	0.27314
2075.98	0.00575113
2077.44	-0.379833
2078.9	0.00891304
2080.36	0.144673
2081.82	-0.00626755
2083.27	-0.140862
2084.73	0.228855
2086.19	0.0594287
2087.65	0.125034
2089.1	0.29107
2090.56	0.0536356
2092.02	0.252888
2093.47	0.334403
2094.93	-0.322272
2096.38	0.0437951
2097.84	0.358601
2099.29	-0.0304708
2100.75	-0.0345793
2102.2	0.0116291
2103.66	0.125235
2105.11	-0.194174
2106.56	0.271909
2108.02	0.221533
2109.47	0.354889
2110.92	0.25435
2112.38	0.219448
2113.83	0.116575
2115.28	-0.0706468
2116.73	-0.175144
2118.18	0.069602
2119.63	0.0992603
2121.09	0.246563
2122.54	-0.118788
2123.99	-0.0848551
2125.44	-0.116743
2126.89	0.182769
2128.34	0.116709
2129.79	-0.26525
2131.23	-0.0185103
2132.68	0.111469
2134.13	-0.255006
2135.58	0.288907
2137.03	0.122821
2138.48	0.30534
2139.92	0.224951
2141.37	0.195451
2142.82	0.166884
2144.27	0.271163
2145.71	0.160486
2147.16	0.0329285
2148.6	0.0704122
2150.05	0.38887
2151.49	0.14331
2152.94	0.278023
2154.38	-0.0186992
2155.83	0.24754
2157.27	0.397831
2158.72	-0.0807776
2160.16	0.220197
2161.6	-0.189896
2163.05	-0.134713
2164.49	-0.0285497
2165.93	0.161414
2167.38	-0.097002
2168.82	0.275183
2170.26	0.0309868
2171.7	-0.0319805
2173.14	0.136462
2174.58	-0.0288496
2176.03	-0.327586
2177.47	0.404819
2178.91	-0.00953197
2180.35	0.258546
2181.79	0.0119014
2183.23	0.198019
2184.67	0.284624
2186.1	-0.127762
2187.54	0.0254493
2188.98	0.36182
2190.42	-0.28379
2191.86	0.268865
2193.3	0.0884857
2194.73	0.256707
2196.17	0.356876
2197.61	0.0228071
2199.05	0.00369978
2200.48	0.38257
2201.92	0.262687
2203.35	0.0273657
2204.79	0.522749
2206.22	0.0572162
2207.66	0.222033
2209.1	0.0553842
2210.53	0.153106
2211.97	-0.0147223
2213.4	-0.282076
2214.83	0.161088
2216.27	0.356526
2217.7	0.189703
2219.13	-0.124397
2220.57	0.337221
2222	0.0405412
2223.43	0.155382
2224.86	0.318429
2226.29	-0.0466671
2227.72	0.360224
2229.16	-0.170851
2230.59	-0.0943928
2232.02	0.0964203
2233.45	0.0742502
2234.88	0.0527101
2236.31	0.538589
2237.74	0.274055
2239.17	-0.168092
2240.6	-0.200552
2242.03	-0.378411
2243.45	-0.310679
2244.88	0.0998712
2246.31	0.0858345
2247.74	0.184711
2249.17	0.298101
2250.59	0.262937
2252.02	0.161283
2253.45	0.124179
2254.87	0.509799
2256.3	0.0517869
2257.73	0.34263
2259.15	0.00290585
2260.58	0.233394
2262	-0.069675
2263.43	0.196648
2264.85	0.252267
2266.28	0.242626
2267.7	-0.060504
2269.13	-0.0228591
2270.55	-0.00209284
2271.97	-0.193388
2273.4	-0.124329
2274.82	0.35207
2276.24	0.193398
2277.67	0.328161
2279.09	0.00657368
2280.51	0.353345
2281.93	0.0803776
2283.35	0.149815
2284.77	0.203003
2286.2	0.256389
2287.62	0.26112
2289.04	-0.1748
2290.46	0.304314
2291.88	0.0811238
2293.3	0.201286
2294.72	0.256081
2296.13	0.474539
2297.55	-0.0765138
2298.97	0.354954
2300.39	0.213304
2301.81	-0.0266333
2303.23	-0.0861201
2304.64	0.543873
2306.06	0.27118
2307.48	0.14581
2308.89	0.200704
2310.31	-0.123047
2311.73	0.0461488
2313.14	0.198958
2314.56	0.36865
2315.98	0.341475
2317.39	0.0677881
2318.81	0.0743985
2320.22	0.229271
2321.64	0.00388384
2323.05	-0.0415926
2324.46	0.670246
2325.88	0.291014
2327.29	0.817646
2328.7	0.60142
2330.12	0.336185
2331.53	0.154264
2332.94	0.203799
2334.35	0.0400977
2335.77	-0.682651
2337.18	0.173459
2338.59	-0.0239296
2340	0.303764
2341.41	0.0391278
2342.82	0.151865
2344.23	0.182424
2345.64	-0.196566
2347.05	-0.280037
2348.46	0.111319
2349.87	0.109272
2351.28	0.0412159
2352.69	0.217466
2354.1	-0.0805602
2355.51	-0.199238
2356.91	-0.285357
2358.32	0.197938
2359.73	-0.0345888
2361.14	0.0418291
2362.54	0.361268
2363.95	-0.162241
2365.36	0.17277
2366.76	0.0223875
2368.17	-0.191792
2369.58	0.0952773
2370.98	0.0444393
2372.39	0.300827
2373.79	0.171305
2375.2	-0.183139
2376.6	0.202529
2378	0.072371
2379.41	0.150025
2380.81	0.0335732
2382.22	-0.16395
2383.62	0.118741
2385.02	-0.367235
2386.43	-0.00498867
2387.83	0.357145
2389.23	0.177434
2390.63	0.381402
2392.03	0.0606761
2393.44	-0.211122
2394.84	0.313202
2396.24	-0.322892
2397.64	0.0273018
2399.04	0.0440812
2400.44	0.0612469
2401.84	0.491626
2403.24	0.0325627
2404.64	0.303751
2406.04	0.00265265
2407.44	-0.0451021
2408.84	0.00171709
2410.23	0.143327
2411.63	0.11069
2413.03	0.442969
2414.43	0.285286
2415.83	0.287169
2417.22	0.0684972
2418.62	0.357202
2420.02	0.202859
2421.41	0.317646
2422.81	-0.185688
2424.21	-0.150658
2425.6	0.233039
2427	-0.00085783
2428.39	0.399966
2429.79	-0.00701237
2431.18	0.506502
2432.58	0.0363922
2433.97	0.454806
2435.36	0.157689
2436.76	0.383575
2438.15	0.179233
2439.54	0.45043
2440.94	0.434881
2442.33	0.49825
2443.72	0.0535531
2445.12	0.195936
2446.51	0.322212
2447.9	-0.375797
2449.29	0.368253
2450.68	0.130166
2452.07	0.0984449
2453.46	0.146476
2454.85	-0.0579581
2456.24	0.27604
2457.64	0.293889
2459.02	0.0585351
2460.41	0.218132
2461.8	-0.0814972
2463.19	-0.128694
2464.58	0.29766
2465.97	-0.129378
2467.36	0.422564
2468.75	-0.272515
2470.13	0.578423
2471.52	-0.274227
2472.91	-0.134001
2474.3	0.304544
2475.68	-0.201888
2477.07	0.40811
2478.45	0.184731
2479.84	-0.163695
2481.23	0.147099
2482.61	0.363341
2484	0.0309429
2485.38	0.0894241
2486.77	0.240615
2488.15	0.000460625
2489.54	0.165494
2490.92	-0.0279951
2492.3	0.214652
2493.69	0.00729656
2495.07	-0.105507
2496.45	0.123852
2497.84	-0.0491681
2499.22	0.0413895
2500.6	0.131553
2501.98	0.205492
2503.36	0.016017
2504.75	0.319788
2506.13	0.606987
2507.51	0.00067997
2508.89	-0.127607
2510.27	-0.0249357
2511.65	0.0473385
2513.03	0.258041
2514.41	-0.204837
2515.79	-0.0541382
2517.17	0.249934
2518.55	0.0801516
2519.93	0.017643
2521.3	0.382623
2522.68	0.120836
2524.06	-0.0650167
2525.44	-0.357835
2526.82	0.156677
2528.19	0.0316215
2529.57	0.120476
2530.95	0.286479
2532.32	0.0890594
2533.7	0.211844
2535.08	0.137685
2536.45	0.443297
2537.83	0.0495386
2539.2	0.0955777
2540.58	0.0346508
2541.95	-0.132773
2543.33	-0.269538
2544.7	0.216332
2546.08	0.202503
2547.45	0.0683036
2548.82	0.344368
2550.2	-0.138124
2551.57	0.350132
2552.94	-0.285353
2554.32	0.246895
2555.69	-0.116885
2557.06	0.0347667
2558.43	-0.101877
2559.8	-0.253412
2561.18	-0.0710435
2562.55	-0.176185
2563.92	0.188902
2565.29	0.00877047
2566.66	0.359227
2568.03	0.23997
2569.4	0.105543
2570.77	-0.18047
2572.14	0.170125
2573.51	0.187336
2574.88	0.174293
2576.25	-0.627103
2577.61	-0.170229
2578.98	0.377506
2580.35	-0.136446
2581.72	-0.0745244
2583.09	-0.285812
2584.45	0.291061
2585.82	0.170486
2587.19	0.110648
2588.55	0.0358071
2589.92	-0.00863457
2591.29	-0.204708
2592.65	0.326174
2594.02	0.189681
2595.38	0.113006
2596.75	0.580469
2598.11	0.0634594
2599.48	0.317798
2600.84	0.0732808
2602.21	0.297587
2603.57	0.114641
2604.93	-0.233705
2606.3	0.413918
2607.66	0.0957551
2609.02	0.0334086
2610.39	-0.240698
2611.75	0.0414314
2613.11	-0.489801
2614.47	0.256201
2615.83	0.235179
2617.19	0.154418
2618.56	0.22405
2619.92	0.27921
2621.28	0.304975
2622.64	0.331126
2624	0.0737138
2625.36	0.458251
2626.72	0.349946
2628.08	-0.473733
2629.44	0.401007
2630.8	0.0690966
2632.15	0.24306
2633.51	-0.028924
2634.87	0.0408592
2636.23	0.4071
2637.59	0.224462
2638.94	0.35308
2640.3	-0.0361953
2641.66	0.151874
2643.02	0.103515
2644.37	-0.16609
2645.73	0.22847
2647.09	0.194621
2648.44	0.204451
2649.8	0.272458
2651.15	0.266258
2652.51	0.0835748
2653.86	0.121496
2655.22	0.115956
2656.57	0.287043
2657.93	0.0929093
2659.28	0.148398
2660.63	-0.351467
2661.99	0.288955
2663.34	0.212508
2664.69	0.223067
2666.05	0.43718
2667.4	0.0384746
2668.75	0.0334854
2670.1	0.217858
2671.45	0.344214
2672.81	0.23843
2674.16	0.307536
2675.51	0.159315
2676.86	0.287341
2678.21	0.285269
2679.56	-0.209122
2680.91	0.109346
2682.26	0.153257
2683.61	0.067615
2684.96	0.0697198
2686.31	0.188269
2687.66	0.350305
2689	0.104964
2690.35	0.221168
2691.7	0.132666
2693.05	0.0865169
2694.4	0.300636
2695.74	-0.0798202
2697.09	0.322796
2698.44	0.233788
2699.79	0.131692
2701.13	0.233716
2702.48	0.163169
2703.83	0.281791
2705.17	0.0819879
2706.52	-0.146971
2707.86	0.407242
2709.21	0.235743
2710.55	0.238065
2711.9	0.0658441
2713.24	0.285735
2714.58	0.316741
2715.93	0.362247
2717.27	0.538551
2718.62	0.0746274
2719.96	-0.0842438
2721.3	-0.1271
2722.65	0.455512
2723.99	0.513809
2725.33	0.222403
2726.67	0.178129
2728.01	0.322797
2729.35	0.117982
2730.7	-0.407018
2732.04	0.0428362
2733.38	0.245346
2734.72	-0.221147
2736.06	0.214346
2737.4	0.140855
2738.74	0.140065
2740.08	-0.122684
2741.42	-0.313046
2742.76	-0.0241094
2744.1	0.307727
2745.43	0.173952
2746.77	0.0399213
2748.11	0.0655208
2749.45	0.163665
2750.79	-0.129698
2752.12	0.229751
2753.46	-0.0340633
2754.8	-0.0947371
2756.14	-0.140792
2757.47	0.160811
2758.81	0.187412
2760.14	0.199835
2761.48	-0.105718
2762.81	0.153485
2764.15	0.383965
2765.49	0.0212083
2766.82	-0.00911999
2768.16	-0.199273
2769.49	0.0289989
2770.82	0.183655
2772.16	0.149271
2773.49	0.186234
2774.82	-0.368388
2776.16	-0.0434437
2777.49	0.252431
2778.82	-0.113227
2780.16	0.226201
2781.49	-0.0520816
2782.82	0.0719004
2784.15	0.425133
2785.48	-0.297036
2786.82	-0.230365
2788.15	0.0799513
2789.48	0.0185647
2790.81	0.301195
2792.14	-0.130623
2793.47	0.109994
2794.8	0.422001
2796.13	0.0906053
2797.46	-0.255325
2798.79	-0.315881
2800.12	-0.0627356
2801.44	0.0615778
2802.77	-0.0995502
2804.1	0.2808
2805.43	0.0621848
2806.76	0.0426102
2808.08	0.278561
2809.41	0.31484
2810.74	-0.0181437
2812.07	0.260049
2813.39	0.212618
2814.72	-0.202196
2816.05	-0.0628371
2817.37	-0.0927167
2818.7	0.246382
2820.02	-0.0664959
2821.35	0.229726
2822.67	0.0718737
2824	-0.100595
2825.32	-0.0891199
2826.65	-0.0068121
2827.97	-0.0373993
2829.3	-0.0392189
2830.62	0.10089
2831.94	0.354403
2833.26	-0.0432725
2834.59	0.408082
2835.91	0.335315
2837.23	0.37533
2838.56	0.216933
2839.88	0.426141
2841.2	0.649465
2842.52	0.873029
2843.84	0.82854
2845.16	1.22277
2846.48	1.53274
2847.8	1.30599
2849.12	1.41846
2850.45	1.36107
2851.77	1.30326
2853.08	1.90926
2854.4	1.42671
2855.72	1.35387
2857.04	1.29517
2858.36	1.60376
2859.68	1.72867
2861	1.79691
2862.32	2.21779
2863.63	1.50904
2864.95	2.33843
2866.27	2.22225
2867.59	2.28969
2868.9	2.07549
2870.22	2.83449
2871.54	3.11415
2872.85	2.75928
2874.17	2.84067
2875.48	3.23093
2876.8	2.91591
2878.11	3.00852
2879.43	2.66481
2880.74	2.9121
2882.06	2.86486
2883.37	3.02928
2884.69	2.80135
2886	2.82674
2887.31	2.79607
2888.63	2.84922
2889.94	3.30844
2891.25	2.98134
2892.57	3.31269
2893.88	3.30739
2895.19	2.79835
2896.5	2.76634
2897.82	3.15508
2899.13	3.01293
2900.44	3.23526
2901.75	3.33209
2903.06	3.52702
2904.37	3.806
2905.68	3.39986
2906.99	3.67962
2908.3	3.87624
2909.61	4.05971
2910.92	3.93591
2912.23	4.27398
2913.54	3.86949
2914.85	4.00971
2916.16	4.28837
2917.46	4.48152
2918.77	4.93948
2920.08	5.01936
2921.39	4.33085
2922.7	4.69223
2924	4.98493
2925.31	4.63571
2926.62	4.8462
2927.92	4.95892
2929.23	5.37888
2930.54	4.91758
2931.84	5.21078
2933.15	4.98652
2934.45	5.08376
2935.76	5.5305
2937.06	5.12489
2938.37	5.04092
2939.67	5.32054
2940.98	4.41291
2942.28	5.08511
2943.58	4.59855
2944.89	4.19692
2946.19	4.45342
2947.49	3.78726
2948.8	3.80623
2950.1	3.93626
2951.4	3.78474
2952.7	3.98164
2954.01	3.19723
2955.31	3.07067
2956.61	3.54675
2957.91	3.24074
2959.21	2.97895
2960.51	2.99944
2961.81	2.88152
2963.11	3.01663
2964.41	3.41826
2965.71	2.58298
2967.01	2.67308
2968.31	2.95898
2969.61	2.696
2970.91	2.71412
2972.21	2.39487
2973.51	2.72311
2974.81	2.20696
2976.1	2.40813
2977.4	2.38302
2978.7	2.30017
2980	1.87806
2981.29	2.52456
2982.59	1.62292
2983.89	1.9736
2985.18	1.819
2986.48	1.93275
2987.78	1.78079
2989.07	1.79832
2990.37	1.61937
2991.66	1.25731
2992.96	1.03499
2994.25	1.17707
2995.55	1.21986
2996.84	1.00931
2998.14	1.07947
2999.43	1.00952
3000.73	0.51947
3002.02	0.646995
3003.31	0.676725
3004.61	0.342344
3005.9	0.596159
3007.19	0.485386
3008.48	0.304124
3009.77	0.499927
3011.07	0.177925
3012.36	0.121376
3013.65	0.790365
3014.94	0.329587
3016.23	0.106882
3017.52	0.0800033
3018.81	0.0675197
3020.1	-0.000473976
3021.4	0.250985
3022.68	0.404249
3023.97	-0.0540786
3025.26	0.264237
3026.55	-0.0968509
3027.84	-0.124747
3029.13	-0.0272555
3030.42	0.154214
3031.71	0.101949
3033	-0.00459957
3034.28	-0.000357151
3035.57	-0.355157
3036.86	0.323509
3038.15	-0.00582838
3039.43	-0.102039
3040.72	-0.185451
3042.01	0.0189328
3043.29	-0.0376534
3044.58	-0.230237
3045.87	0.125864
3047.15	0.264495
3048.44	-0.264062
3049.72	0.0693698
3051.01	0.335732
3052.29	0.220724
3053.58	0.310465
3054.86	0.358789
3056.15	0.310829
3057.43	0.248432
3058.71	0.253632
3060	0.285903
3061.28	0.236845
3062.56	0.555916
3063.84	0.359284
3065.13	0.721481
3066.41	-0.0706816
3067.69	-0.0191164
3068.97	0.386426
3070.26	0.343118
3071.54	0.244757
3072.82	0.295078
3074.1	-0.18573
3075.38	0.216392
3076.66	-0.0882401
3077.94	0.272912
3079.22	0.186947
3080.5	-0.14186
3081.78	0.263184
3083.06	-0.13106
3084.34	-0.117741
3085.62	0.384291
3086.9	-0.226807
3088.18	0.0573936
3089.45	0.028945
3090.73	0.108783
3092.01	-0.0556412
3093.29	-0.233356
3094.56	0.213117
3095.84	-0.0317535
3097.12	0.360759
3098.4	0.156805
3099.67	-0.209674
3100.95	0.0742822
3102.22	0.209251
3103.5	0.0872245
3104.78	-0.0883865
3106.05	-0.22268
3107.33	0.279872
3108.6	0.242013
3109.88	0.069726
3111.15	0.209636
3112.43	0.418043
3113.7	0.0985856
3114.97	0.117865
3116.25	0.191127
3117.52	0.168913
3118.79	0.308707
3120.07	0.407013
3121.34	0.599528
3122.61	0.181658
3123.88	0.0621285
3125.16	-0.0705867
3126.43	0.446898
3127.7	0.274557
3128.97	0.170462
3130.24	0.553586
3131.51	0.32843
3132.79	0.238546
3134.06	0.486225
3135.33	0.436368
3136.6	0.332294
3137.87	0.403341
3139.14	0.420217
3140.41	0.208266
3141.67	0.480981
3142.94	0.807309
3144.21	0.556355
3145.48	0.534468
3146.75	0.432828
3148.02	0.559736
3149.29	0.901315
