200.43	0.427012
202.244	0.447883
204.059	0.469887
205.873	0.152317
207.688	0.200025
209.501	0.174335
211.314	0.463435
213.127	0.362641
214.941	0.23674
216.753	-0.0107174
218.564	0.711017
220.375	0.391612
222.186	0.436321
223.999	-0.243438
225.809	0.286259
227.618	0.598188
229.428	0.305859
231.236	0.037425
233.045	0.0101957
234.855	-0.18547
236.663	0.53608
238.471	-0.162761
240.278	-0.232664
242.085	0.229861
243.891	0.283895
245.698	-0.120618
247.503	0.366484
249.309	0.0303717
251.116	0.850356
252.921	-0.31183
254.725	-0.00308609
256.529	-0.370156
258.333	0.372358
260.136	0.128059
261.939	0.126483
263.742	-0.0904121
265.544	0.247772
267.346	-0.0643082
269.148	-0.232179
270.949	-0.376727
272.75	-0.040102
274.55	-0.331594
276.351	0.315665
278.15	0.165671
279.95	-0.178713
281.749	0.293837
283.548	0.0184288
285.346	-0.01754
287.144	0.401857
288.942	-0.330529
290.739	-0.150616
292.536	-0.281068
294.333	0.666397
296.129	-0.155046
297.925	0.411325
299.721	-0.0257006
301.514	0.158357
303.309	0.055027
305.104	-0.0970592
306.898	0.0602169
308.692	0.145554
310.486	0.231249
312.279	-0.0869799
314.072	0.286927
315.862	0.329021
317.654	0.444205
319.446	0.155847
321.238	-0.131718
323.029	0.272648
324.819	0.0813074
326.608	0.247924
328.398	-0.326116
330.188	0.509
331.977	0.48286
333.766	0.00050354
335.553	0.233882
337.341	0.154146
339.129	0.383523
340.917	0.0851736
342.704	0.0731344
344.489	-0.106265
346.275	0.407534
348.062	0.109744
349.845	0.242218
351.631	0.0166397
353.416	-0.0184555
355.201	0.422602
356.984	-0.0439739
358.768	0.0129938
360.552	-0.193118
362.333	0.195122
364.116	0.0827303
365.899	0.254937
367.68	0.331151
369.462	-0.0441132
371.243	0.693857
373.023	0.412149
374.804	0.0598021
376.585	0.156775
378.363	-0.146917
380.143	-0.025219
381.923	-0.467676
383.7	0.26762
385.479	0.109814
387.256	0.329166
389.034	0.126507
390.812	0.464972
392.588	0.569205
394.365	-0.00705814
396.14	-0.41866
397.916	-0.102172
399.691	1.01273
401.467	0.0603342
403.24	0.0233574
405.015	0.572857
406.788	0.628368
408.563	0.495454
410.335	0.244877
412.109	0.416826
413.88	0.143211
415.654	0.1518
417.424	-0.19092
419.197	-0.415843
420.967	-0.0773668
422.739	0.190558
424.508	0.387467
426.279	-0.0268316
428.048	0.0745697
429.819	-0.458263
431.587	-0.16961
433.356	0.565148
435.124	0.0327969
436.891	0.908574
438.66	0.328601
440.426	0.427917
442.194	0.150058
443.96	-0.12947
445.725	0.456486
447.492	0.221176
449.257	0.102738
451.021	0.919084
452.787	0.240301
454.551	0.215908
456.314	-0.0415583
458.079	-0.205626
459.842	-0.159994
461.604	0.141881
463.368	0.374959
465.13	0.238177
466.891	0.452454
468.654	0.367077
470.415	0.0274839
472.175	0.409391
473.935	0.558242
475.696	0.635739
477.456	0.501596
479.215	0.505476
480.973	0.415235
482.733	-0.233871
484.491	0.352387
486.249	-0.294239
488.006	0.412254
489.765	0.37503
491.522	0.618776
493.278	0.840171
495.034	-0.0370131
496.789	0.114028
498.544	0.171351
500.301	0.27527
502.056	0.237939
503.81	0.293701
505.564	0.230993
507.317	0.28457
509.071	1.04255
510.825	0.0347176
512.578	0.790051
514.33	0.391018
516.082	-0.362014
517.833	-0.0103626
519.585	0.434175
521.335	0.525171
523.086	0.310319
524.836	0.236302
526.586	0.44382
528.335	1.00282
530.085	0.647178
531.835	0.150997
533.584	0.47394
535.332	0.561481
537.08	0.764444
538.827	0.428746
540.574	0.489118
542.321	0.292377
544.068	-0.020586
545.814	0.0621643
547.56	0.585808
549.305	-0.236125
551.05	-0.152948
552.795	-0.0235643
554.54	0.475385
556.282	0.119464
558.025	-0.166267
559.769	-0.451067
561.512	0.0477314
563.255	0.247171
564.997	0.0100899
566.739	0.256241
568.481	-0.484413
570.223	0.382853
571.964	-0.0799112
573.705	-0.0594034
575.443	-0.404467
577.183	0.261356
578.923	-0.127199
580.663	0.380269
582.402	0.934304
584.141	0.177958
585.879	0.156034
587.615	-0.0740423
589.353	-0.374265
591.09	0.291003
592.828	0.380611
594.564	-0.197152
596.299	-0.199707
598.035	0.0967836
599.771	0.922086
601.506	0.780342
603.242	0.361493
604.974	0.378399
606.709	-0.249278
608.443	0.064558
610.177	-0.0581827
611.908	-0.11159
613.642	0.225467
615.374	0.310722
617.105	0.0295086
618.837	0.0457897
620.569	0.473152
622.3	0.372761
624.03	0.111704
625.761	0.4449
627.491	0.55028
629.219	-0.25553
630.949	-0.0549994
632.677	0.170077
634.406	0.624388
636.135	0.302463
637.861	0.755128
639.59	0.771585
641.318	0.511574
643.043	0.0445976
644.77	0.305889
646.495	0.202976
648.222	0.465507
649.948	0.230633
651.672	0.112803
653.398	-0.0244598
655.121	0.0684328
656.846	-0.178077
658.569	0.327929
660.293	0.652122
662.015	0.267557
663.738	-0.0738926
665.46	0.245258
667.183	0.379988
668.903	-0.0805798
670.626	0.420005
672.346	0.304702
674.067	0.1227
675.787	0.0568638
677.508	0.427932
679.226	0.731005
680.947	0.734948
682.665	0.783287
684.385	1.10596
686.102	0.598028
687.821	0.318688
689.538	0.936654
691.254	0.148863
692.972	0.765625
694.688	0.391252
696.406	0.52272
698.121	0.376825
699.835	0.529071
701.552	0.97909
703.266	0.600294
704.98	1.00224
706.695	1.05885
708.409	0.977393
710.121	0.987353
711.836	0.905368
713.548	0.686004
715.26	0.192616
716.973	0.818809
718.685	0.759627
720.396	0.541165
722.108	1.00636
723.818	0.924767
725.528	1.13874
727.238	1.21579
728.949	1.08806
730.658	0.846806
732.367	0.311254
734.075	1.4961
735.785	0.440957
737.493	0.517236
739.2	1.22564
740.907	0.739015
742.614	1.08766
744.322	0.401486
746.028	0.95492
747.734	1.30675
749.439	1.36726
751.144	1.13658
752.849	1.33448
754.555	1.48872
756.26	1.48692
757.963	1.46408
759.667	1.26236
761.37	1.08398
763.073	1.62786
764.775	1.60783
766.477	1.49636
768.179	1.45088
769.883	1.10939
771.584	1.51219
773.285	1.48402
774.986	1.90762
776.686	1.58554
778.386	1.60382
780.085	1.39738
781.785	2.00634
783.484	1.52957
785.182	1.23263
786.881	1.99748
788.579	1.01652
790.276	0.983442
791.974	1.67124
793.671	1.67891
795.367	1.68627
797.064	1.85222
798.76	1.99693
800.456	1.37794
802.151	1.23337
803.846	1.58431
805.541	1.39533
807.234	1.52038
808.928	1.84632
810.622	1.90143
812.315	1.52951
814.008	2.07628
815.701	1.70403
817.394	1.69026
819.086	1.65422
820.778	1.39511
822.468	1.62764
824.159	1.94974
825.85	2.20591
827.541	2.15205
829.231	1.63323
830.921	2.09726
832.609	1.22749
834.298	1.40658
835.987	1.09613
837.676	1.72252
839.364	1.47771
841.051	1.0749
842.738	1.1175
844.426	1.58425
846.113	1.47066
847.798	1.00084
849.484	1.09204
851.171	1.02886
852.857	1.10179
854.54	1.44498
856.226	1.56418
857.911	1.25542
859.593	0.539584
861.278	1.19469
862.961	1.0606
864.645	1.24076
866.327	1.26239
868.01	1.2158
869.692	0.988353
871.373	0.760544
873.055	1.36724
874.735	0.733025
876.416	0.865927
878.097	0.615204
879.776	0.522348
881.457	0.948399
883.135	1.23842
884.815	1.36943
886.495	0.844596
888.172	1.35652
889.851	0.490939
891.528	0.999803
893.206	0.921242
894.882	0.751767
896.56	1.05371
898.237	1.37661
899.912	0.733408
901.589	0.964745
903.263	1.62019
904.94	0.910525
906.614	1.02873
908.289	1.03573
909.962	0.709488
911.635	1.02989
913.31	0.594643
914.982	0.826685
916.656	0.836506
918.328	0.203569
920.001	1.18824
921.672	0.711596
923.345	0.501988
925.015	0.956801
926.685	0.485437
928.357	0.810519
930.026	0.695213
931.698	0.0510569
933.366	0.311816
935.035	1.05792
936.705	1.31904
938.373	0.875193
940.041	0.829431
941.71	0.806817
943.377	0.939336
945.044	1.1601
946.712	0.806004
948.378	1.53185
950.044	0.666744
951.709	0.506977
953.376	0.986928
955.041	0.806515
956.706	0.893205
958.372	0.806391
960.036	0.302654
961.699	0.727338
963.362	0.378922
965.027	0.316176
966.69	0.494475
968.352	0.67041
970.014	0.37987
971.676	0.553143
973.339	0.704612
975	0.768881
976.661	0.923262
978.322	0.924239
979.982	1.00331
981.642	1.0821
983.303	0.705871
984.962	1.25764
986.621	0.700697
988.28	1.02743
989.938	0.844118
991.596	0.969802
993.254	0.145436
994.911	0.999763
996.57	0.353022
998.227	0.743324
999.884	0.648188
1001.54	1.01529
1003.2	0.853351
1004.85	0.779309
1006.51	0.881069
1008.16	0.104423
1009.82	0.0533113
1011.47	1.09914
1013.12	0.8291
1014.78	0.559757
1016.43	0.772699
1018.08	0.482645
1019.74	0.871578
1021.39	0.299183
1023.04	0.187122
1024.69	0.360059
1026.34	-0.0783739
1028	0.61951
1029.65	0.333593
1031.3	0.592757
1032.95	0.719341
1034.6	0.866125
1036.25	1.07685
1037.9	0.175452
1039.54	0.995028
1041.19	0.769893
1042.84	0.633205
1044.49	0.780699
1046.14	0.191371
1047.78	0.75497
1049.43	0.451311
1051.08	1.16961
1052.72	0.607167
1054.37	0.17522
1056.02	0.569009
1057.66	0.484465
1059.31	0.682123
1060.95	0.183444
1062.6	0.77128
1064.24	0.597245
1065.88	-0.0342054
1067.53	0.463854
1069.17	0.482771
1070.81	0.153634
1072.45	0.171976
1074.1	0.819951
1075.74	0.535694
1077.38	0.122659
1079.02	0.361369
1080.66	0.492329
1082.3	0.146251
1083.94	0.60172
1085.58	0.535359
1087.22	0.207232
1088.86	0.462312
1090.5	0.71546
1092.14	0.448288
1093.78	0.224358
1095.42	0.259898
1097.05	0.468553
1098.69	0.979639
1100.33	1.06113
1101.96	0.348186
1103.6	0.691429
1105.24	0.368959
1106.87	0.498756
1108.51	0.198185
1110.14	0.1763
1111.78	1.09875
1113.41	0.729969
1115.05	0.338994
1116.68	-0.180706
1118.31	0.479472
1119.95	-0.0817871
1121.58	0.450491
1123.21	0.212705
1124.85	0.660624
1126.48	0.317665
1128.11	0.360495
1129.74	0.874333
1131.37	0.554807
1133	0.406638
1134.63	-0.340123
1136.26	0.195135
1137.89	-0.0399275
1139.52	0.108611
1141.15	0.362906
1142.78	0.168381
1144.41	0.0381479
1146.04	0.207086
1147.66	0.163621
1149.29	-0.156014
1150.92	0.398243
1152.55	0.0365744
1154.17	-0.176169
1155.8	0.142947
1157.43	0.16389
1159.05	-0.112642
1160.68	0.313422
1162.3	0.0174131
1163.93	0.679092
1165.55	0.724654
1167.17	-0.101736
1168.8	-0.036005
1170.42	-0.26927
1172.05	0.30332
1173.67	0.236794
1175.29	-0.212616
1176.91	0.292163
1178.54	0.118479
1180.16	0.0303268
1181.78	-0.141551
1183.4	-0.439495
1185.02	-0.124289
1186.64	0.232001
1188.26	-0.257583
1189.88	0.453515
1191.5	0.171882
1193.12	-0.131391
1194.74	0.0273485
1196.36	0.0389051
1197.97	0.302472
1199.59	0.27412
1201.21	0.373252
1202.83	0.182271
1204.44	0.139865
1206.06	0.370593
1207.68	0.456393
1209.29	0.312987
1210.91	0.335792
1212.52	-0.164106
1214.14	0.480668
1215.75	0.123171
1217.37	0.492803
1218.98	0.798442
1220.59	0.791938
1222.21	0.869016
1223.82	1.09214
1225.43	0.4053
1227.05	1.18991
1228.66	0.878807
1230.27	0.217636
1231.88	0.715462
1233.49	0.862833
1235.1	0.990648
1236.72	1.22294
1238.33	0.484611
1239.94	1.9178
1241.55	1.34558
1243.16	0.565901
1244.76	1.27505
1246.37	0.886678
1247.98	1.36646
1249.59	1.1006
1251.2	1.26894
1252.8	1.27195
1254.41	0.986063
1256.02	1.05279
1257.62	1.14134
1259.23	1.2517
1260.84	0.783368
1262.44	0.749996
1264.05	1.83526
1265.66	1.03517
1267.26	0.91795
1268.86	0.862036
1270.47	0.846649
1272.07	0.685183
1273.67	1.37283
1275.28	1.56188
1276.88	1.08684
1278.48	0.735636
1280.09	1.10887
1281.69	1.62637
1283.29	1.62631
1284.89	1.41997
1286.49	1.00788
1288.09	1.34101
1289.69	1.55088
1291.29	0.893327
1292.89	1.04163
1294.49	1.74701
1296.09	1.5215
1297.69	1.54236
1299.29	1.45846
1300.89	1.37326
1302.49	1.59601
1304.08	2.04382
1305.68	1.77048
1307.28	1.72311
1308.88	1.22422
1310.47	1.60761
1312.07	1.51968
1313.66	1.33037
1315.26	1.63273
1316.85	1.58839
1318.45	1.85069
1320.04	1.31743
1321.64	1.45638
1323.23	1.36984
1324.83	1.68838
1326.42	1.59882
1328.01	1.56975
1329.61	1.78422
1331.2	1.63563
1332.79	1.50965
1334.38	0.96198
1335.97	1.92991
1337.56	1.3242
1339.16	1.24265
1340.75	1.341
1342.34	1.17562
1343.93	1.1897
1345.52	0.921653
1347.11	1.25587
1348.7	1.87128
1350.29	1.04692
1351.87	1.00609
1353.46	1.407
1355.05	1.16927
1356.64	1.05192
1358.22	0.854347
1359.81	1.01552
1361.4	0.616738
1362.98	1.11529
1364.57	0.695877
1366.16	0.994431
1367.74	1.03448
1369.33	0.916321
1370.91	1.29701
1372.5	0.783402
1374.08	1.32544
1375.67	0.893092
1377.25	0.938383
1378.83	0.903637
1380.41	0.629244
1382	0.970484
1383.58	0.554705
1385.16	1.17198
1386.74	1.1525
1388.33	0.894872
1389.91	0.757139
1391.49	0.898095
1393.07	0.781775
1394.65	0.30885
1396.23	0.847264
1397.81	1.08743
1399.39	0.870769
1400.97	0.752478
1402.55	0.495216
1404.13	0.831701
1405.7	1.04963
1407.28	0.912353
1408.86	1.34892
1410.44	0.85733
1412.01	0.583213
1413.59	0.466687
1415.17	0.684913
1416.74	0.251406
1418.32	1.27653
1419.89	0.803693
1421.47	1.04108
1423.04	0.885984
1424.62	0.496215
1426.19	0.776754
1427.77	1.01841
1429.34	0.511898
1430.91	1.14619
1432.49	0.913453
1434.06	1.09309
1435.63	1.29187
1437.2	0.841887
1438.78	0.884164
1440.35	1.90997
1441.92	1.99317
1443.49	1.68397
1445.06	1.68958
1446.63	1.63639
1448.2	2.0551
1449.77	2.23824
1451.34	1.75334
1452.91	1.5441
1454.48	2.10227
1456.05	1.87365
1457.62	1.62465
1459.18	1.21699
1460.75	1.79176
1462.32	1.20381
1463.89	1.42108
1465.45	1.32264
1467.02	1.34183
1468.59	1.04717
1470.15	1.38154
1471.72	1.26546
1473.28	1.28769
1474.85	0.722328
1476.41	0.510414
1477.98	0.965199
1479.54	0.831748
1481.1	0.521833
1482.67	0.466686
1484.23	0.822907
1485.79	0.747708
1487.36	0.515207
1488.92	0.712451
1490.48	0.223099
1492.04	1.08164
1493.61	0.354618
1495.17	0.427526
1496.73	0.811065
1498.29	0.37611
1499.85	1.22541
1501.41	0.772978
1502.97	0.516496
1504.53	0.164391
1506.09	0.819753
1507.65	0.525734
1509.2	0.32803
1510.76	0.322747
1512.32	0.663626
1513.88	0.348898
1515.43	0.457991
1516.99	0.221734
1518.55	0.331838
1520.1	0.882773
1521.66	1.41358
1523.22	0.738749
1524.77	0.809337
1526.33	0.497506
1527.88	0.471322
1529.44	0.349643
1530.99	0.797895
1532.54	0.638569
1534.1	0.139544
1535.65	0.701805
1537.21	0.394479
1538.76	0.371509
1540.31	0.688315
1541.86	0.759688
1543.42	0.680274
1544.97	0.939255
1546.52	0.915786
1548.07	0.760867
1549.62	1.33722
1551.17	1.40699
1552.72	0.766233
1554.27	0.613392
1555.82	1.04092
1557.37	0.330824
1558.92	1.09703
1560.47	1.13694
1562.02	0.935756
1563.56	1.25791
1565.11	0.890277
1566.66	0.933177
1568.21	1.3865
1569.75	1.20492
1571.3	1.00429
1572.85	1.19539
1574.39	1.4237
1575.94	1.40934
1577.49	1.56317
1579.03	1.77338
1580.57	1.19998
1582.12	1.57954
1583.66	1.39959
1585.21	1.72479
1586.75	1.43372
1588.3	1.64753
1589.84	1.37481
1591.38	1.70048
1592.92	1.37056
1594.47	0.983968
1596.01	1.87121
1597.55	1.01634
1599.09	1.41764
1600.63	2.27011
1602.17	1.65994
1603.71	1.25567
1605.25	1.05708
1606.79	1.43974
1608.33	1.82084
1609.87	1.69238
1611.41	1.12968
1612.95	1.29811
1614.49	0.845823
1616.03	1.05017
1617.57	1.57329
1619.1	1.17885
1620.64	1.61007
1622.18	1.46185
1623.72	0.97744
1625.25	1.20451
1626.79	1.84256
1628.32	1.11334
1629.86	1.93558
1631.39	1.48508
1632.93	1.66978
1634.46	1.6305
1636	2.20768
1637.53	1.47972
1639.07	1.72233
1640.6	1.6107
1642.13	1.88982
1643.67	1.83251
1645.2	1.82995
1646.73	1.47322
1648.26	1.69274
1649.8	1.54089
1651.33	2.02103
1652.86	2.0752
1654.39	1.40729
1655.92	1.9637
1657.45	1.64886
1658.98	2.03735
1660.51	2.01701
1662.04	2.29131
1663.57	1.89863
1665.1	2.26328
1666.63	1.76026
1668.16	1.81222
1669.68	1.82861
1671.21	1.34888
1672.74	1.92037
1674.27	1.99477
1675.79	1.59026
1677.32	1.79261
1678.85	1.42352
1680.37	1.45832
1681.9	1.29027
1683.42	1.28738
1684.95	1.39463
1686.47	1.35534
1688	0.821607
1689.52	1.09481
1691.05	0.946828
1692.57	1.31146
1694.09	0.633064
1695.62	0.613348
1697.14	0.556887
1698.66	0.281059
1700.18	0.753454
1701.71	1.0424
1703.23	0.583233
1704.75	0.597735
1706.27	0.375284
1707.79	0.407466
1709.31	0.457674
1710.83	0.489696
1712.35	0.539933
1713.87	0.499625
1715.39	0.187881
1716.91	0.3107
1718.43	0.433194
1719.95	0.501233
1721.47	0.623419
1722.99	0.277112
1724.5	0.364515
1726.02	0.272802
1727.54	0.236251
1729.06	0.290497
1730.57	0.507388
1732.09	0.703281
1733.61	0.522888
1735.12	0.597159
1736.64	0.499424
1738.15	0.367761
1739.67	0.500515
1741.18	0.486136
1742.7	0.557858
1744.21	0.497404
1745.72	0.190052
1747.24	0.163821
1748.75	-0.127288
1750.26	0.054266
1751.77	0.413835
1753.29	0.205317
1754.8	0.118055
1756.31	0.105374
1757.82	0.205659
1759.33	-0.0258932
1760.84	-0.128767
1762.36	0.00696373
1763.87	0.306637
1765.38	0.216985
1766.89	0.33856
1768.4	0.0492492
1769.91	0.289646
1771.41	-0.104995
1772.92	0.0578175
1774.43	0.437905
1775.94	0.172116
1777.45	-0.0758643
1778.95	0.0536633
1780.46	0.00234461
1781.97	0.20803
1783.48	0.34104
1784.98	0.402908
1786.49	-0.0343337
1787.99	0.25527
1789.5	-0.00537634
1791.01	0.203059
1792.51	0.154038
1794.01	0.122692
1795.52	0.0242424
1797.02	0.167801
1798.53	-0.0127578
1800.03	0.163086
1801.53	0.182302
1803.04	0.123888
1804.54	0.103167
1806.04	0.0598946
1807.54	-0.304298
1809.05	0.0137167
1810.55	0.225368
1812.05	0.0510764
1813.55	0.052712
1815.05	-0.114735
1816.55	-0.167822
1818.05	-0.174998
1819.55	0.0054884
1821.05	-0.121539
1822.55	-0.0463028
1824.05	0.0792971
1825.55	-0.0361137
1827.05	0.208409
1828.55	-0.0273285
1830.04	-0.124874
1831.54	-0.158412
1833.04	0.0975423
1834.54	0.196775
1836.03	0.0682063
1837.53	0.176274
1839.03	0.00318193
1840.52	0.368508
1842.02	0.244799
1843.51	0.39284
1845.01	0.0328512
1846.5	0.060544
1848	0.335599
1849.49	0.104892
1850.99	-0.0320239
1852.48	0.445407
1853.97	0.147808
1855.47	0.103824
1856.96	0.189149
1858.45	0.425412
1859.94	0.215217
1861.44	0.157189
1862.93	0.301302
1864.42	0.122094
1865.91	0.283824
1867.4	0.236941
1868.89	0.165275
1870.38	-0.142319
1871.87	0.136299
1873.36	0.0994391
1874.85	0.213914
1876.34	0.0763922
1877.83	0.233091
1879.32	0.335375
1880.81	0.0543375
1882.3	0.103212
1882.57	0.126185
1884.07	0.159881
1885.56	0.715653
1887.06	0.329649
1888.55	-0.21303
1890.04	0.219332
1891.54	0.147793
1893.03	-0.148388
1894.52	0.113306
1896.02	0.185012
1897.51	0.396545
1899	-0.261722
1900.49	0.244599
1901.98	0.140714
1903.47	0.174531
1904.96	0.12022
1906.45	0.273814
1907.94	0.392511
1909.43	0.494266
1910.92	0.162972
1912.41	0.38771
1913.9	-0.0288877
1915.39	0.231
1916.88	0.230451
1918.37	0.0734639
1919.85	0.349365
1921.34	-0.0331621
1922.83	0.589196
1924.32	0.277168
1925.8	0.1566
1927.29	0.175406
1928.78	0.0908494
1930.26	0.0754886
1931.75	0.23262
1933.23	0.0941586
1934.72	0.0754719
1936.2	0.0727358
1937.69	-0.25946
1939.17	0.151385
1940.66	0.268412
1942.14	0.489565
1943.63	0.228417
1945.11	0.278574
1946.59	-0.119208
1948.07	-0.516943
1949.56	-0.0708747
1951.04	0.167374
1952.52	0.215315
1954	-0.012392
1955.48	-0.0164618
1956.96	0.100003
1958.45	0.0795951
1959.93	0.0598097
1961.41	0.366271
1962.89	0.449819
1964.37	-0.117907
1965.85	-0.206048
1967.32	0.150342
1968.8	0.197898
1970.28	-0.216583
1971.76	0.411185
1973.24	0.304098
1974.72	0.248418
1976.19	-0.113813
1977.67	0.256963
1979.15	0.0826602
1980.63	-0.0744286
1982.1	0.00652647
1983.58	-0.082736
1985.05	-0.00241327
1986.53	0.0775881
1988	0.293033
1989.48	0.254412
1990.95	0.11489
1992.43	-0.108242
1993.9	-0.364154
1995.38	0.310214
1996.85	0.443889
1998.32	0.138344
1999.8	-0.167356
2001.27	0.0329461
2002.74	0.182061
2004.22	0.162349
2005.69	-0.160345
2007.16	-0.499008
2008.63	0.0220394
2010.1	-0.0288606
2011.57	-0.382321
2013.04	0.122725
2014.51	0.374839
2015.98	0.121466
2017.45	-0.199771
2018.92	0.100588
2020.39	-0.00302505
2021.86	-0.140222
2023.33	0.125834
2024.8	0.190977
2026.27	-0.0280809
2027.74	0.408216
2029.2	0.241941
2030.67	-0.242016
2032.14	0.147171
2033.61	-0.0337725
2035.07	0.0370321
2036.54	0.292362
2038.01	-0.057528
2039.47	0.0458918
2040.94	-0.0860233
2042.4	-0.0159092
2043.87	0.00440311
2045.33	0.0422902
2046.8	0.35021
2048.26	0.45656
2049.72	0.394181
2051.19	0.364597
2052.65	-0.172264
2054.12	0.233758
2055.58	-0.0699339
2057.04	0.26601
2058.5	0.314614
2059.97	0.48097
2061.43	0.00775051
2062.89	0.0909729
2064.35	0.4106
2065.81	0.175653
2067.27	0.227507
2068.73	0.128369
2070.19	0.467129
2071.65	0.0989356
2073.11	0.404037
2074.57	-0.166656
2076.03	0.525313
2077.49	0.257126
2078.95	-0.0113869
2080.41	0.393303
2081.87	0.494387
2083.32	0.426543
2084.78	0.307628
2086.24	0.474149
2087.7	0.253298
2089.15	0.301203
2090.61	0.516867
2092.07	0.749034
2093.52	0.292933
2094.98	0.0215802
2096.43	0.571363
2097.89	0.399698
2099.34	0.211037
2100.8	0.624418
2102.25	0.502671
2103.71	0.632289
2105.16	0.529216
2106.61	0.811123
2108.07	0.560045
2109.52	0.576157
2110.97	0.258391
2112.43	0.372997
2113.88	0.869066
2115.33	0.497834
2116.78	0.49222
2118.23	0.885544
2119.68	0.499358
2121.13	0.546591
2122.59	0.36323
2124.04	0.595694
2125.49	1.01103
2126.94	0.779446
2128.39	1.02776
2129.83	1.12558
2131.28	1.2884
2132.73	0.622745
2134.18	1.182
2135.63	0.914674
2137.08	0.946385
2138.53	1.14497
2139.97	1.34522
2141.42	2.14213
2142.87	1.89886
2144.31	1.50712
2145.76	1.90961
2147.21	1.5505
2148.65	2.05179
2150.1	1.97269
2151.54	1.57779
2152.99	1.54643
2154.43	1.59718
2155.88	1.81317
2157.32	1.91325
2158.77	1.63304
2160.21	1.63568
2161.65	1.95482
2163.1	2.20965
2164.54	1.40447
2165.98	1.57848
2167.43	1.85233
2168.87	1.82627
2170.31	1.76524
2171.75	2.03492
2173.19	2.26952
2174.64	1.8208
2176.07	1.75419
2177.52	2.00374
2178.96	1.83832
2180.4	1.67385
2181.84	1.87596
2183.28	1.86249
2184.72	1.89918
2186.15	2.03576
2187.59	2.17243
2189.03	1.62685
2190.47	1.29743
2191.91	1.46711
2193.35	1.83595
2194.78	1.62082
2196.22	1.63711
2197.66	1.78464
2199.09	1.1157
2200.53	1.31074
2201.97	1.23975
2203.4	1.43492
2204.84	1.10026
2206.27	1.51265
2207.71	1.42815
2209.14	1.2442
2210.58	1.17557
2212.01	1.45346
2213.45	0.755136
2214.88	1.18085
2216.31	1.09486
2217.75	1.25744
2219.18	1.09117
2220.61	1.40386
2222.05	0.941868
2223.48	0.809043
2224.91	0.922132
2226.34	1.00068
2227.78	0.896821
2229.21	0.677096
2230.64	0.768883
2232.07	0.467041
2233.5	0.346167
2234.93	0.602236
2236.36	0.597445
2237.79	0.724597
2239.22	0.739009
2240.65	0.526766
2242.08	0.495517
2243.5	0.70994
2244.93	0.614758
2246.36	0.74735
2247.79	0.258839
2249.22	0.63285
2250.64	0.271513
2252.07	0.218574
2253.5	0.620398
2254.92	0.258188
2256.35	0.206216
2257.78	0.707913
2259.2	0.611467
2260.63	0.874463
2262.05	0.425502
2263.48	0.562091
2264.9	0.292779
2266.33	0.21798
2267.75	0.40275
2269.18	0.733387
2270.6	0.558919
2272.02	0.611903
2273.45	0.501909
2274.87	0.0824366
2276.29	-0.0437689
2277.71	0.514626
2279.14	0.193028
2280.56	0.47457
2281.98	0.560422
2283.4	0.124177
2284.82	0.536335
2286.24	0.116414
2287.66	0.284362
2289.08	0.289444
2290.5	0.164136
2291.92	0.365899
2293.34	0.600649
2294.76	0.197473
2296.18	0.399529
2297.6	0.274197
2299.02	0.132425
2300.44	0.0890231
2301.86	0.849312
2303.27	0.314503
2304.69	0.238887
2306.11	-0.132498
2307.53	0.136304
2308.94	0.306288
2310.36	0.19637
2311.78	0.0696177
2313.19	0.156678
2314.61	-0.26613
2316.02	0.480454
2317.44	0.0256796
2318.85	0.362033
2320.27	0.00580597
2321.68	0.0773783
2323.1	-0.0505557
2324.51	0.265268
2325.92	-0.0147676
2327.34	0.891389
2328.75	0.625846
2330.16	0.640796
2331.58	0.277848
2332.99	0.06422
2334.4	0.345001
2335.81	-0.542134
2337.23	0.297652
2338.64	-0.16265
2340.05	-0.0976148
2341.46	0.295052
2342.87	0.0139899
2344.28	0.143276
2345.69	0.0104003
2347.1	0.00894928
2348.51	0.105731
2349.92	-0.0105734
2351.33	-0.0129085
2352.74	-0.0160127
2354.15	0.127001
2355.55	-0.236085
2356.96	0.264281
2358.37	0.0804601
2359.78	-0.135357
2361.19	0.217395
2362.59	-0.192586
2364	-0.164517
2365.41	-0.201255
2366.81	0.0692897
2368.22	-0.322155
2369.62	0.19122
2371.03	-0.197812
2372.44	-0.0536995
2373.84	-0.247116
2375.24	0.268141
2376.65	0.0425467
2378.05	0.121835
2379.46	0.0391049
2380.86	0.0194139
2382.26	0.287275
2383.67	-0.00671911
2385.07	0.115709
2386.47	0.198232
2387.88	0.249389
2389.28	-0.0254226
2390.68	-0.0120192
2392.08	-0.363874
2393.48	0.256022
2394.89	0.160291
2396.29	0.224181
2397.69	-0.0769963
2399.09	-0.171005
2400.49	-0.0739632
2401.89	0.0709329
2403.29	0.279339
2404.69	0.0427794
2406.09	0.583436
2407.48	-0.241623
2408.88	0.154619
2410.28	0.328297
2411.68	0.232662
2413.08	0.137784
2414.48	0.123154
2415.87	0.236342
2417.27	0.160613
2418.67	0.069746
2420.06	-0.0367198
2421.46	0.125964
2422.86	-0.0126004
2424.25	-0.00880766
2425.65	0.0108857
2427.04	0.411378
2428.44	-0.0116167
2429.83	0.390554
2431.23	0.539751
2432.62	0.181203
2434.02	0.203052
2435.41	0.335213
2436.81	0.418556
2438.2	0.0398979
2439.59	0.422791
2440.99	-0.227438
2442.38	0.297041
2443.77	0.0116429
2445.16	0.154587
2446.56	0.0436172
2447.95	0.122804
2449.34	0.0593524
2450.73	0.233632
2452.12	0.218281
2453.51	0.251035
2454.9	0.17372
2456.29	-0.0770316
2457.68	-0.0902467
2459.07	-0.00869274
2460.46	-0.386226
2461.85	0.136987
2463.24	-0.00454378
2464.63	0.13796
2466.02	0.169567
2467.4	-0.0041337
2468.79	0.0431685
2470.18	-0.0989814
2471.57	-0.0679626
2472.95	0.277545
2474.34	0.275664
2475.73	-0.167163
2477.12	0.364873
2478.5	0.299258
2479.89	0.09266
2481.27	0.403933
2482.66	0.307314
2484.04	0.288731
2485.43	0.285099
2486.81	0.311797
2488.2	-0.255387
2489.58	0.128881
2490.97	-0.0170956
2492.35	-0.0690269
2493.73	0.0507841
2495.12	0.171394
2496.5	0.168787
2497.88	0.0429406
2499.27	0.0567613
2500.65	0.178553
2502.03	-0.117741
2503.41	0.172455
2504.79	-0.0167761
2506.17	0.348581
2507.56	-0.0565643
2508.94	0.0773468
2510.32	0.272731
2511.7	-0.114745
2513.08	-0.255663
2514.46	0.125035
2515.84	-0.351256
2517.22	-0.0309639
2518.59	-0.0316792
2519.97	0.0899711
2521.35	-0.109447
2522.73	-0.00388527
2524.11	0.0398746
2525.49	0.0982523
2526.86	-0.224344
2528.24	0.153794
2529.62	7.20024e-005
2530.99	0.364488
2532.37	0.395726
2533.75	-0.0277386
2535.12	0.33939
2536.5	0.296258
2537.88	0.0702896
2539.25	0.162575
2540.63	0.284522
2542	0.375748
2543.38	0.406464
2544.75	-0.0930576
2546.12	-0.24264
2547.5	0.321612
2548.87	0.234285
2550.24	-0.156528
2551.62	0.347555
2552.99	0.243903
2554.36	0.184963
2555.74	0.474279
2557.11	0.0501385
2558.48	0.141679
2559.85	0.339492
2561.22	0.219362
2562.59	0.0391483
2563.96	0.026094
2565.34	0.0133595
2566.71	-0.135589
2568.08	0.321722
2569.45	0.218301
2570.82	0.0693955
2572.18	0.0720716
2573.55	0.165761
2574.92	0.183725
2576.29	0.262357
2577.66	0.204465
2579.03	0.282849
2580.4	0.406435
2581.77	0.0748038
2583.13	0.197756
2584.5	0.00214338
2585.87	0.0338988
2587.23	-0.282868
2588.6	0.158321
2589.97	0.47829
2591.33	0.131345
2592.7	0.208333
2594.06	0.239202
2595.43	0.117808
2596.79	0.434648
2598.16	0.190798
2599.52	0.521441
2600.89	0.504261
2602.25	0.351591
2603.62	0.124123
2604.98	0.229229
2606.34	0.213719
2607.71	0.197945
2609.07	-0.0596347
2610.43	-0.0618057
2611.79	0.0253186
2613.16	0.0362272
2614.52	0.0765581
2615.88	-0.0634484
2617.24	0.0968046
2618.6	-0.177088
2619.96	0.103707
2621.32	0.115479
2622.68	0.0080924
2624.04	0.468422
2625.4	0.196907
2626.76	-0.149011
2628.12	0.533455
2629.48	0.336174
2630.84	0.109272
2632.2	0.0758882
2633.56	0.324726
2634.92	0.320825
2636.28	0.0647936
2637.63	0.283319
2638.99	0.294245
2640.35	0.275682
2641.71	-0.127017
2643.06	-0.0118909
2644.42	0.664158
2645.77	0.32129
2647.13	0.33236
2648.49	-0.0990167
2649.84	0.308506
2651.2	-0.0791321
2652.55	0.356158
2653.91	0.291945
2655.26	0.257764
2656.62	0.00481749
2657.97	-0.085907
2659.33	0.0728097
2660.68	0.436353
2662.03	0.127154
2663.39	0.358213
2664.74	0.17964
2666.09	0.161155
2667.44	0.317198
2668.8	0.40011
2670.15	0.163012
2671.5	0.101141
2672.85	0.228721
2674.2	0.254975
2675.55	-0.211847
2676.91	0.0620894
2678.26	0.394325
2679.61	-0.142953
2680.96	-0.186336
2682.31	0.11912
2683.66	0.295032
2685	0.22518
2686.35	0.300724
2687.7	0.434204
2689.05	-0.0139189
2690.4	0.320527
2691.75	0.0293417
2693.1	0.114387
2694.44	-0.00439167
2695.79	0.28261
2697.14	0.367014
2698.49	-0.0689359
2699.83	0.0902033
2701.18	0.337549
2702.52	0.035728
2703.87	-0.0336695
2705.22	0.259682
2706.56	0.176218
2707.91	-0.429947
2709.25	0.327672
2710.6	0.388492
2711.94	0.391022
2713.29	0.320771
2714.63	-0.185658
2715.97	0.179956
2717.32	0.414758
2718.66	-0.0342851
2720.01	0.0982132
2721.35	0.244956
2722.69	-0.350955
2724.03	0.0861411
2725.38	0.391913
2726.72	0.377149
2728.06	0.333014
2729.4	0.288687
2730.74	0.113294
2732.08	0.301623
2733.42	-0.0919085
2734.76	0.0674896
2736.1	-0.0638876
2737.44	-0.0206375
2738.78	0.269807
2740.12	0.341872
2741.46	0.35537
2742.8	0.513702
2744.14	0.0900693
2745.48	0.407125
2746.82	-0.118658
2748.16	0.415454
2749.49	0.36878
2750.83	0.365805
2752.17	0.218047
2753.51	-0.0308824
2754.84	0.386916
2756.18	0.0803709
2757.52	0.136111
2758.85	-0.0396008
2760.19	-0.287317
2761.53	0.290236
2762.86	-0.0725064
2764.2	-0.145603
2765.53	-0.00169659
2766.87	0.373292
2768.2	-0.120431
2769.54	0.0213327
2770.87	0.277455
2772.2	0.243358
2773.54	-0.0512319
2774.87	0.0867496
2776.2	-0.250851
2777.54	-0.155879
2778.87	-0.190089
2780.2	0.00604486
2781.53	-0.113787
2782.87	0.197115
2784.2	-0.0947819
2785.53	-0.0566926
2786.86	0.253621
2788.19	0.048636
2789.52	-0.0696893
2790.85	-0.0442257
2792.18	0.110481
2793.51	0.108203
2794.84	0.0344839
2796.17	0.232
2797.5	0.343256
2798.83	-0.131418
2800.16	-0.320593
2801.49	-0.0818558
2802.82	-0.14292
2804.15	-0.104381
2805.47	0.0904336
2806.8	-0.170926
2808.13	0.00849152
2809.46	-0.139547
2810.78	0.0108767
2812.11	0.260884
2813.44	0.242013
2814.76	0.125067
2816.09	0.00930405
2817.42	0.121193
2818.74	-0.475167
2820.07	-0.0652127
2821.39	0.316021
2822.72	-0.0119019
2824.04	0.169852
2825.37	0.450404
2826.69	0.235224
2828.02	0.346182
2829.34	0.131954
2830.66	-0.02526
2831.99	0.468842
2833.31	0.11356
2834.63	0.479903
2835.96	0.392905
2837.28	0.291358
2838.6	0.302676
2839.92	0.483531
2841.24	0.621964
2842.57	0.675858
2843.89	0.659587
2845.21	1.20919
2846.53	0.953727
2847.85	0.868135
2849.17	1.02282
2850.49	1.40341
2851.81	1.4161
2853.13	1.21637
2854.45	1.24247
2855.77	1.3673
2857.09	1.29432
2858.41	1.19316
2859.72	1.36033
2861.04	1.41434
2862.36	1.34102
2863.68	1.59205
2865	2.02617
2866.31	1.95222
2867.63	2.00546
2868.95	1.77704
2870.26	2.4372
2871.58	2.25155
2872.9	2.29122
2874.21	2.4993
2875.53	2.35423
2876.84	2.75741
2878.16	2.48408
2879.47	2.23896
2880.79	2.51443
2882.1	2.81844
2883.42	2.53327
2884.73	2.13677
2886.05	2.45685
2887.36	2.13125
2888.67	2.68942
2889.99	2.58733
2891.3	2.14809
2892.61	2.66177
2893.92	2.65653
2895.24	2.60963
2896.55	2.66144
2897.86	3.1479
2899.17	2.87955
2900.48	2.75184
2901.79	2.80639
2903.11	3.04296
2904.42	3.06982
2905.73	3.36268
2907.04	3.34833
2908.35	3.33468
2909.66	3.46168
2910.97	3.43528
2912.27	3.6748
2913.58	4.09576
2914.89	3.87151
2916.2	4.05175
2917.51	4.09061
2918.82	3.9747
2920.13	3.99863
2921.43	4.66631
2922.74	4.44016
2924.05	4.94218
2925.35	4.74631
2926.66	4.8725
2927.97	4.73313
2929.27	4.92894
2930.58	5.08231
2931.89	5.36106
2933.19	4.99658
2934.5	5.13531
2935.8	5.30209
2937.11	5.2594
2938.41	5.11909
2939.72	4.75548
2941.02	4.47621
2942.32	4.86847
2943.63	4.80071
2944.93	4.03516
2946.24	4.36101
2947.54	4.114
2948.84	3.65664
2950.14	3.82805
2951.45	3.872
2952.75	3.6763
2954.05	3.66147
2955.35	3.68836
2956.65	3.31016
2957.95	3.03169
2959.26	3.55347
2960.56	3.34961
2961.86	3.32949
2963.16	3.00133
2964.46	2.98109
2965.76	3.15635
2967.06	2.81041
2968.36	3.0255
2969.66	2.67762
2970.96	2.52644
2972.25	2.57241
2973.55	2.43577
2974.85	2.41168
2976.15	2.68274
2977.45	2.53039
2978.74	2.10911
2980.04	2.19334
2981.34	1.84027
2982.64	2.06375
2983.93	1.76718
2985.23	1.28903
2986.52	1.7257
2987.82	1.69979
2989.12	1.26718
2990.41	1.41095
2991.71	1.47004
2993	1.07861
2994.3	0.854949
2995.59	1.24859
2996.89	1.0798
2998.18	0.981201
2999.48	0.826823
3000.77	0.953456
3002.06	0.617959
3003.36	0.955627
3004.65	0.284622
3005.94	0.4961
3007.23	0.567007
3008.53	0.497325
3009.82	0.273269
3011.11	0.230628
3012.4	0.466998
3013.69	0.382204
3014.99	0.158523
3016.28	0.270069
3017.57	0.0618982
3018.86	0.188347
3020.15	0.161783
3021.44	-0.0735226
3022.73	0.329762
3024.02	-0.0176392
3025.31	0.148016
3026.6	0.119352
3027.89	-0.0610151
3029.18	-0.198681
3030.46	0.0795188
3031.75	0.220505
3033.04	0.0861511
3034.33	0.324798
3035.62	-0.0854764
3036.9	0.110343
3038.19	0.221907
3039.48	0.0290995
3040.76	0.151711
3042.05	0.17729
3043.34	-0.0986681
3044.62	-0.400517
3045.91	0.407075
3047.19	0.231386
3048.48	0.180762
3049.77	0.241106
3051.05	0.152628
3052.34	0.406008
3053.62	0.304669
3054.9	0.503021
3056.19	0.441389
3057.47	0.242676
3058.76	0.629447
3060.04	0.25317
3061.32	0.258737
3062.61	0.333155
3063.89	0.476692
3065.17	0.268044
3066.45	0.074192
3067.74	0.0986972
3069.02	0.286779
3070.3	0.433984
3071.58	0.226963
3072.86	0.209487
3074.14	0.191137
3075.42	0.335226
3076.7	0.248168
3077.99	-0.150553
3079.26	0.306755
3080.54	0.398834
3081.82	-0.0232201
3083.1	0.12551
3084.38	0.00352573
3085.66	0.125922
3086.94	0.329557
3088.22	-0.308803
3089.5	0.260406
3090.78	-0.0256629
3092.05	0.0682492
3093.33	0.0945349
3094.61	-0.407722
3095.89	-0.0146232
3097.16	0.107392
3098.44	0.256535
3099.72	-0.407367
3100.99	0.0805545
3102.27	0.378783
3103.54	0.216884
3104.82	0.177405
3106.1	0.165704
3107.37	0.317223
3108.65	0.171944
3109.92	0.393042
3111.2	0.141232
3112.47	0.526563
3113.74	0.370627
3115.02	0.377344
3116.29	0.19396
3117.56	0.349034
3118.84	0.367793
3120.11	0.534998
3121.38	0.403268
3122.66	0.433917
3123.93	0.640656
3125.2	0.400697
3126.47	0.608061
3127.74	0.639983
3129.01	0.361352
3130.29	0.313188
3131.56	0.751881
3132.83	0.622812
3134.1	0.898862
3135.37	0.607429
3136.64	0.626329
3137.91	0.523637
3139.18	0.501784
3140.45	0.574254
3141.72	0.512357
3142.99	0.679355
3144.26	0.739254
3145.52	0.571672
3146.79	0.847376
3148.06	1.08325
3149.33	0.998157
