200.43	0.525408
202.246	0.572707
204.061	0.621339
205.875	0.0387087
207.688	-0.543218
209.501	-0.0319633
211.316	0.695801
213.129	0.571141
214.941	0.541965
216.753	0.148271
218.566	-0.172271
220.377	0.476301
222.188	0.205936
223.999	-0.232374
225.809	0.22443
227.618	0.415035
229.43	-0.216138
231.239	0.0935516
233.047	-0.441999
234.855	0.469939
236.663	0.105062
238.471	0.0802746
240.278	-0.278942
242.087	-0.249795
243.894	-0.00206947
245.7	-0.0198736
247.506	0.491274
249.311	-0.0876837
251.116	0.319037
252.921	-0.31609
254.725	0.108293
256.529	0.0733614
258.333	0.183882
260.136	-0.137411
261.939	0.314517
263.744	0.0457287
265.546	-0.0533371
267.348	0.570823
269.15	0.0616798
270.951	-0.135467
272.752	0.147897
274.552	0.405151
276.353	0.73234
278.152	-0.605989
279.952	0.486772
281.751	0.829247
283.55	0.230624
285.348	0.0875282
287.146	-0.536494
288.942	-0.368253
290.739	0.255545
292.536	-0.125546
294.333	0.404642
296.129	-0.16382
297.925	0.0819654
299.721	-0.293139
301.516	0.0720243
303.311	0.0537081
305.106	0.200734
306.9	0.584744
308.694	1.03935
310.486	0.231223
312.279	0.639808
314.072	0.550066
315.864	-0.656581
317.656	0.353363
319.448	0.245894
321.24	0.377976
323.029	0.129415
324.819	-0.309917
326.61	-0.34394
328.4	0.553308
330.19	0.470484
331.977	0.433693
333.766	0.562064
335.555	0.232948
337.343	0.45113
339.131	0.307562
340.917	-0.412026
342.704	0.684528
344.491	-0.1794
346.277	0.868568
348.062	0.865948
349.848	-0.162652
351.633	-0.116875
353.416	0.0712137
355.201	0.42476
356.986	0.227831
358.77	0.553551
360.552	-0.099144
362.335	0.889769
364.118	0.378045
365.899	0.198708
367.682	-0.147558
369.464	0.548958
371.243	-0.273121
373.025	-0.550211
374.806	0.637943
376.585	0.218133
378.365	0.577902
380.143	0.301887
381.923	0.00414848
383.702	-0.174106
385.479	-0.280223
387.258	-0.102939
389.034	0.192864
390.812	-0.050581
392.59	0.200069
394.365	-0.276709
396.142	0.44456
397.916	0.743132
399.693	-0.250401
401.467	0.516936
403.242	0.978053
405.015	0.545562
406.79	0.299985
408.565	0.194483
410.337	-0.146255
412.111	-0.416531
413.882	0.0175657
415.656	0.428846
417.426	0.277829
419.197	0.150934
420.969	0.728345
422.739	1.3994
424.51	0.590613
426.279	-0.289944
428.05	0.518658
429.819	0.622216
431.589	0.209261
433.356	0.336411
435.124	0.722035
436.893	0.990208
438.66	0.248234
440.428	-0.471941
442.194	0.353974
443.96	0.0042305
445.727	0.26167
447.492	0.891577
449.259	0.397224
451.023	0.137392
452.787	0.228457
454.553	-0.0303192
456.316	0.10742
458.079	0.617286
459.844	-0.0139198
461.606	0.0773716
463.368	-0.06213
465.132	0.428564
466.893	-0.30894
468.654	0.722863
470.415	0.920666
472.177	0.467907
473.937	0.828535
475.696	0.884407
477.456	0.86758
479.217	0.568755
480.975	0.175446
482.733	0.853619
484.491	0.717966
486.251	0.514734
488.008	0.896635
489.765	-0.211207
491.522	0.501216
493.278	0.911898
495.036	1.30018
496.791	0.495171
498.546	1.02376
500.301	0.684987
502.056	1.16623
503.81	1.13029
505.566	1.09277
507.319	0.512513
509.073	1.45887
510.825	0.944771
512.578	1.20497
514.33	0.263157
516.082	0.284394
517.833	0.398165
519.587	0.181442
521.337	0.715819
523.088	0.380088
524.838	0.30257
526.588	0.952267
528.337	1.0151
530.087	0.234042
531.835	0.296467
533.584	0.49824
535.332	0.160284
537.08	0.966251
538.827	0.9284
540.574	0.306046
542.321	0.476032
544.068	0.412423
545.814	0.32563
547.56	0.703386
549.305	0.779159
551.05	1.15603
552.795	0.560765
554.54	0.0825148
556.284	0.0441074
558.027	0.329037
559.771	-0.238454
561.514	-0.228843
563.257	0.31043
564.999	0.160023
566.742	0.630766
568.481	0.275455
570.223	0.862605
571.964	0.372814
573.705	0.206362
575.445	0.0879316
577.185	-0.0973816
578.925	-0.00577736
580.665	0.362432
582.402	0.363479
584.141	0.363866
585.879	0.133006
587.617	0.705603
589.355	0.195528
591.092	0.0523233
592.828	-0.643732
594.564	-0.21264
596.301	-0.103633
598.037	0.21238
599.773	0.366897
601.506	-0.192735
603.242	-0.109739
604.976	0.155364
606.711	0.349683
608.443	0.611653
610.177	-0.0678883
611.91	0.607219
613.644	0.869937
615.374	0.0561361
617.107	0.205388
618.839	0.353911
620.569	-0.13994
622.3	0.165914
624.032	0.218817
625.761	0.568585
627.491	0.348414
629.221	-0.348386
630.949	0.532373
632.679	0.206211
634.408	0.383426
636.135	0.879938
637.863	0.758016
639.592	1.04348
641.318	0.50376
643.045	0.212349
644.77	0.17033
646.497	0.447147
648.224	0.794002
649.948	-0.0143747
651.674	0.568214
653.398	-0.0715313
655.123	0.383907
656.846	0.250992
658.57	-0.314045
660.293	-0.173372
662.017	0.0799456
663.738	0.216636
665.462	0.0761719
667.185	0.116227
668.905	0.841485
670.628	0.309653
672.348	0.191809
674.067	0.282914
675.789	0.37682
677.508	0.426609
679.228	0.315973
680.947	0.387868
682.667	0.848825
684.385	-0.0274382
686.104	0.152365
687.821	0.883128
689.538	0.507067
691.256	0.705911
692.972	0.397224
694.69	-0.188727
696.406	0.0763836
698.121	0.247857
699.837	0.670776
701.552	0.723882
703.268	0.293051
704.982	0.275354
706.695	0.922596
708.41	0.651013
710.123	1.04389
711.836	1.48143
713.55	1.14008
715.262	0.844811
716.973	1.53178
718.685	0.301492
720.398	0.98805
722.108	0.785555
723.818	1.06129
725.53	1.08633
727.24	0.270603
728.949	0.499698
730.658	0.909183
732.369	0.52469
734.077	0.706377
735.785	1.13639
737.493	0.617643
739.2	1.00311
740.909	1.61455
742.616	1.19049
744.322	0.476044
746.028	1.15927
747.734	1.39386
749.441	1.33767
751.146	0.585956
752.851	0.870526
754.555	1.85433
756.26	0.747679
757.963	1.24068
759.667	1.24045
761.372	0.926056
763.075	1.06316
764.777	1.51632
766.479	2.01391
768.181	0.904689
769.883	1.69136
771.584	1.50332
773.285	1.99182
774.986	1.52999
776.686	1.43064
778.386	0.948544
780.085	1.59902
781.785	2.25132
783.484	1.81802
785.182	1.97165
786.881	0.967832
788.579	1.95201
790.276	1.25734
791.974	1.28345
793.671	1.62359
795.367	1.53411
797.064	1.15293
798.76	2.28334
800.456	1.32143
802.151	1.71222
803.846	1.94619
805.541	1.77518
807.236	0.996636
808.93	0.936123
810.624	1.45774
812.317	2.13442
814.01	1.66659
815.703	1.49026
817.394	2.45497
819.086	1.89842
820.778	1.70032
822.47	1.7931
824.161	1.57463
825.852	1.44738
827.543	1.43431
829.231	1.51379
830.921	1.15168
832.611	1.66183
834.3	1.59562
835.989	2.31135
837.676	0.818291
839.364	2.15804
841.053	1.64292
842.74	1.46094
844.426	1.68049
846.113	1.69982
847.8	1.58727
849.486	1.38824
851.171	1.63993
852.857	1.17736
854.542	1.3209
856.227	1.84646
857.911	0.662933
859.595	1.25301
861.279	1.32383
862.961	1.16741
864.645	0.761366
866.329	1.30076
868.01	1.70436
869.692	1.47608
871.375	0.886401
873.055	1.33412
874.737	1.69162
876.418	1.0789
878.097	0.511198
879.778	1.0719
881.457	1.63231
883.137	1.15341
884.817	1.48585
886.495	1.16193
888.174	0.926483
889.851	0.531434
891.53	1.64499
893.206	0.728526
894.884	1.38714
896.562	0.964183
898.237	0.787874
899.914	0.835096
901.589	0.679614
903.265	1.41888
904.94	0.837533
906.615	0.257916
908.289	1.64239
909.964	0.708822
911.637	1.15769
913.31	0.895391
914.984	0.545243
916.656	1.03883
918.33	0.86656
920.001	0.761216
921.674	0.612509
923.345	0.200221
925.015	0.939167
926.687	-0.130906
928.357	1.22984
930.028	0.914354
931.698	1.01912
933.366	0.175652
935.037	1.25163
936.705	0.938478
938.373	0.626466
940.043	0.646796
941.71	0.889275
943.379	0.779776
945.046	0.449385
946.712	0.890152
948.378	1.01968
950.046	0.837812
951.711	0.919258
953.376	0.471391
955.043	0.400498
956.708	0.751962
958.372	0.975266
960.036	0.42984
961.701	1.25516
963.364	0.666913
965.027	0.45187
966.69	0.344043
968.354	0.940814
970.016	1.33578
971.678	1.46403
973.339	1.1063
975	1.10432
976.661	1.17106
978.324	1.17345
979.984	1.58613
981.644	1.99859
983.303	1.7785
984.962	2.17565
986.621	2.45918
988.282	1.98779
989.94	0.984411
991.598	1.13048
993.256	0.547302
994.913	0.406423
996.57	0.398251
998.227	0.897223
999.884	2.05642
1001.54	1.78226
1003.2	1.41987
1004.85	1.87125
1006.51	0.695673
1008.16	1.30067
1009.82	1.18111
1011.47	0.974589
1013.12	1.11961
1014.78	1.44022
1016.43	0.775909
1018.08	1.84155
1019.74	0.982653
1021.39	1.32828
1023.04	1.23803
1024.69	1.3021
1026.34	1.43253
1028	1.32265
1029.65	1.12463
1031.3	1.79875
1032.95	1.11676
1034.6	1.37149
1036.25	1.66767
1037.9	1.85338
1039.55	1.38565
1041.19	1.96358
1042.84	2.45558
1044.49	1.79799
1046.14	2.09929
1047.79	1.44755
1049.43	1.36278
1051.08	1.51864
1052.73	1.26289
1054.37	0.638158
1056.02	0.926035
1057.66	1.3876
1059.31	0.783344
1060.95	1.52629
1062.6	1.11583
1064.24	0.899898
1065.88	0.465311
1067.53	1.33359
1069.17	1.13549
1070.81	1.41445
1072.46	1.12863
1074.1	0.756901
1075.74	1.05918
1077.38	0.929307
1079.02	0.670998
1080.66	0.869096
1082.3	0.503438
1083.94	0.201822
1085.58	1.15562
1087.22	0.806108
1088.86	1.29882
1090.5	1.11781
1092.14	0.654531
1093.78	1.03371
1095.42	0.959337
1097.05	0.0885725
1098.69	0.125577
1100.33	0.530648
1101.97	0.421284
1103.6	0.421799
1105.24	0.230401
1106.87	0.771058
1108.51	0.558584
1110.15	0.796367
1111.78	1.46188
1113.41	0.835777
1115.05	0.59522
1116.68	0.375673
1118.31	0.649646
1119.95	0.667025
1121.58	0.707079
1123.21	1.06951
1124.85	0.448786
1126.48	0.599571
1128.11	0.409139
1129.74	0.968023
1131.37	1.69856
1133	0.93299
1134.63	0.851412
1136.26	-0.0217047
1137.89	0.920503
1139.52	0.55768
1141.15	0.535487
1142.78	-0.148822
1144.41	-0.0644712
1146.04	0.233816
1147.66	-0.681669
1149.29	-0.338552
1150.92	0.19669
1152.55	0.965963
1154.17	0.09515
1155.8	0.160804
1157.43	0.119892
1159.05	0.377218
1160.68	-0.236384
1162.3	0.0445662
1163.93	0.241666
1165.55	0.588247
1167.17	0.594357
1168.8	0.641689
1170.42	0.47436
1172.05	0.0710602
1173.67	0.133141
1175.29	-0.421631
1176.91	-0.149409
1178.54	0.164991
1180.16	-0.451582
1181.78	0.329876
1183.4	0.328999
1185.02	0.433859
1186.64	-1.10956
1188.26	0.871003
1189.88	0.14755
1191.5	-0.3661
1193.12	0.969958
1194.74	0.600691
1196.36	0.0647631
1197.97	0.159552
1199.59	0.235293
1201.21	0.501804
1202.83	0.687678
1204.44	0.563582
1206.06	0.400532
1207.68	0.739895
1209.29	0.412055
1210.91	0.166788
1212.52	0.0655842
1214.14	0.441108
1215.75	0.147111
1217.37	0.621125
1218.98	0.490291
1220.6	0.546392
1222.21	0.27141
1223.82	1.13807
1225.44	1.46694
1227.05	0.92829
1228.66	1.05385
1230.27	1.2843
1231.88	0.834028
1233.49	1.43951
1235.1	1.36449
1236.72	1.45638
1238.33	1.40491
1239.94	1.43702
1241.55	1.86239
1243.16	1.85309
1244.76	1.67725
1246.37	2.05876
1247.98	2.41823
1249.59	1.78348
1251.2	2.20351
1252.8	2.2307
1254.41	1.9486
1256.02	2.06092
1257.63	1.76116
1259.23	2.47675
1260.84	1.99339
1262.44	1.69669
1264.05	1.95914
1265.66	2.03475
1267.26	2.48256
1268.87	2.6805
1270.47	2.64898
1272.07	2.07694
1273.68	2.37433
1275.28	2.64956
1276.88	2.09449
1278.48	2.59513
1280.09	2.68042
1281.69	3.63446
1283.29	2.89142
1284.89	3.01828
1286.49	2.83619
1288.09	3.31702
1289.69	2.39374
1291.3	2.33924
1292.9	2.51193
1294.49	3.86108
1296.09	2.68822
1297.69	3.16546
1299.29	3.00031
1300.89	2.62711
1302.49	3.13855
1304.09	3.11266
1305.68	2.77742
1307.28	2.85291
1308.88	2.49701
1310.47	2.55174
1312.07	2.68874
1313.66	2.82647
1315.26	2.00491
1316.86	3.02354
1318.45	3.51093
1320.05	2.71308
1321.64	2.5875
1323.23	2.80605
1324.83	2.61526
1326.42	2.70723
1328.01	3.00092
1329.61	2.68714
1331.2	1.99197
1332.79	2.21032
1334.38	3.36003
1335.98	2.59354
1337.57	2.13119
1339.16	2.69652
1340.75	1.90941
1342.34	2.02644
1343.93	1.65826
1345.52	2.35355
1347.11	2.60613
1348.7	2.03912
1350.29	1.95667
1351.87	1.5976
1353.46	1.84127
1355.05	2.16641
1356.64	1.97234
1358.23	2.21731
1359.81	1.78195
1361.4	1.06618
1362.99	1.26773
1364.57	1.82743
1366.16	1.33078
1367.74	2.56816
1369.33	1.81541
1370.91	1.64208
1372.5	1.70933
1374.08	1.71829
1375.67	0.991867
1377.25	1.08138
1378.83	1.94636
1380.42	0.422315
1382	1.12523
1383.58	1.56764
1385.16	1.25312
1386.75	1.57407
1388.33	2.15301
1389.91	1.16418
1391.49	1.72491
1393.07	1.75069
1394.65	1.08277
1396.23	1.64434
1397.81	1.27304
1399.39	1.51503
1400.97	1.12185
1402.55	1.34196
1404.13	1.36393
1405.7	1.12944
1407.28	0.91596
1408.86	1.17784
1410.44	1.77596
1412.01	1.7813
1413.59	2.0425
1415.17	1.43415
1416.74	1.57471
1418.32	1.51752
1419.89	1.28346
1421.47	2.19294
1423.05	1.43058
1424.62	1.81209
1426.19	1.78182
1427.77	2.53954
1429.34	2.33248
1430.92	2.04554
1432.49	2.68207
1434.06	2.96288
1435.63	2.49557
1437.2	2.89386
1438.78	2.2904
1440.35	2.82836
1441.92	3.54435
1443.49	2.82661
1445.06	2.9348
1446.63	2.98426
1448.2	2.56214
1449.77	3.81133
1451.34	3.01658
1452.91	3.73658
1454.48	3.31647
1456.05	3.3093
1457.62	3.18319
1459.18	3.1931
1460.75	3.16134
1462.32	3.14673
1463.89	3.16923
1465.45	2.99365
1467.02	2.14985
1468.59	1.89639
1470.15	2.25261
1471.72	1.17788
1473.28	1.79171
1474.85	1.73953
1476.41	1.45259
1477.98	1.77357
1479.54	1.62393
1481.11	0.905809
1482.67	0.971641
1484.23	1.11564
1485.8	1.37672
1487.36	0.872934
1488.92	1.34681
1490.48	1.11363
1492.05	0.115666
1493.61	0.28898
1495.17	0.264815
1496.73	0.12257
1498.29	0.700386
1499.85	0.577679
1501.41	0.417639
1502.97	1.0156
1504.53	1.03219
1506.09	0.623187
1507.65	0.717063
1509.2	0.42318
1510.76	1.18992
1512.32	1.10576
1513.88	0.905862
1515.44	0.975753
1516.99	0.758183
1518.55	1.1173
1520.1	0.997457
1521.66	0.954642
1523.22	1.48496
1524.77	0.562149
1526.33	1.85223
1527.88	1.50018
1529.44	1.26248
1530.99	1.32919
1532.55	0.751632
1534.1	1.71049
1535.65	1.40099
1537.21	1.18781
1538.76	0.919266
1540.31	0.953403
1541.86	1.13829
1543.42	1.66144
1544.97	1.41245
1546.52	1.50176
1548.07	1.55314
1549.62	1.58561
1551.17	1.24372
1552.72	2.06289
1554.27	1.81638
1555.82	1.87077
1557.37	1.81526
1558.92	1.61291
1560.47	1.93532
1562.02	1.75594
1563.57	1.44734
1565.11	1.34458
1566.66	1.85773
1568.21	2.4827
1569.75	2.30467
1571.3	2.63012
1572.85	2.74985
1574.39	2.27201
1575.94	2.35418
1577.49	2.32459
1579.03	2.70623
1580.58	2.58456
1582.12	2.53852
1583.67	2.60559
1585.21	2.67364
1586.75	2.94801
1588.3	2.49332
1589.84	2.63675
1591.38	3.04177
1592.93	3.07194
1594.47	2.87693
1596.01	2.47573
1597.55	2.43086
1599.09	3.2305
1600.63	3.45023
1602.18	2.90127
1603.72	3.23429
1605.26	3.19099
1606.8	2.73241
1608.34	2.64704
1609.87	3.3481
1611.41	2.88088
1612.95	2.41146
1614.49	2.52269
1616.03	2.31435
1617.57	1.82564
1619.11	1.88213
1620.64	2.29616
1622.18	2.33715
1623.72	2.47274
1625.25	2.96399
1626.79	2.94879
1628.32	2.53903
1629.86	2.57662
1631.4	2.96791
1632.93	3.22744
1634.47	3.375
1636	2.94506
1637.53	2.96428
1639.07	3.15208
1640.6	2.8925
1642.14	3.22846
1643.67	3.99093
1645.2	3.18774
1646.73	3.14679
1648.27	3.68148
1649.8	3.69596
1651.33	3.21067
1652.86	3.46941
1654.39	3.17319
1655.92	3.50818
1657.45	3.65757
1658.98	3.6206
1660.51	3.89662
1662.04	3.63383
1663.57	4.27561
1665.1	3.1424
1666.63	3.45097
1668.16	2.80144
1669.69	3.46328
1671.21	3.24205
1672.74	2.65401
1674.27	2.89555
1675.79	3.08143
1677.32	2.95329
1678.85	2.93422
1680.37	2.5093
1681.9	2.10227
1683.42	2.41144
1684.95	2.2982
1686.47	1.89209
1688	1.39532
1689.52	1.63229
1691.05	1.55803
1692.57	1.3375
1694.1	1.66584
1695.62	1.15266
1697.14	0.785888
1698.66	1.16783
1700.19	1.38456
1701.71	1.12619
1703.23	0.484781
1704.75	0.845273
1706.27	1.11367
1707.79	0.690437
1709.32	1.1215
1710.83	0.862262
1712.35	0.186593
1713.88	1.05219
1715.39	0.613027
1716.91	0.952265
1718.43	0.296762
1719.95	0.364562
1721.47	0.468484
1722.99	0.392536
1724.5	0.281722
1726.02	0.640603
1727.54	0.478605
1729.06	0.731668
1730.57	0.302073
1732.09	0.286788
1733.61	0.867551
1735.12	0.844979
1736.64	-0.217667
1738.15	0.959295
1739.67	0.70753
1741.18	0.47306
1742.7	0.242628
1744.21	0.171526
1745.72	0.697922
1747.24	0.498865
1748.75	0.490691
1750.26	0.659478
1751.78	0.145967
1753.29	0.271443
1754.8	0.381948
1756.31	0.260403
1757.82	0.132016
1759.34	0.0158415
1760.85	0.558637
1762.36	0.35441
1763.87	0.435472
1765.38	0.431388
1766.89	0.153653
1768.4	0.136989
1769.91	0.562487
1771.41	-0.0284748
1772.92	0.596522
1774.43	0.237222
1775.94	-0.102077
1777.45	0.392317
1778.96	0.203882
1780.46	-0.204308
1781.97	0.133294
1783.48	0.102313
1784.98	0.230048
1786.49	-0.0469847
1788	0.201943
1789.5	0.238475
1791.01	-0.0107307
1792.51	0.100139
1794.01	0.440838
1795.52	0.276078
1797.02	0.282296
1798.53	0.069499
1800.03	0.176035
1801.54	0.0182543
1803.04	0.267915
1804.54	0.209665
1806.04	0.38507
1807.54	0.26001
1809.05	0.107588
1810.55	0.385459
1812.05	0.102128
1813.55	0.141266
1815.05	0.162797
1816.55	0.193949
1818.05	-0.128187
1819.55	0.157511
1821.05	0.0373831
1822.55	0.130853
1824.05	-0.0316343
1825.55	0.127954
1827.05	0.144278
1828.55	0.0789194
1830.04	0.46859
1831.54	-0.354255
1833.04	-0.0135117
1834.54	0.297014
1836.03	0.137197
1837.53	-0.175427
1839.03	0.178681
1840.52	0.0258455
1842.02	0.124982
1843.51	0.228687
1845.01	0.207492
1846.5	0.186992
1848	-0.0963078
1849.49	0.0624647
1850.99	-0.0894175
1852.48	0.235276
1853.97	-0.0731268
1855.47	0.000347137
1856.96	0.207974
1858.45	-0.181111
1859.94	-0.030323
1861.44	0.38145
1862.93	0.339194
1864.42	-0.011076
1865.91	-0.0466518
1867.4	-0.0984564
1868.89	0.178305
1870.38	-0.0715752
1871.87	0.0383396
1873.36	-0.11276
1874.85	-0.10624
1876.34	0.0276232
1877.83	0.0562134
1879.32	0.267106
1880.81	0.150313
1882.3	0.0294361
1882.56	0.0105858
1884.06	0.200682
1885.55	0.215519
1887.04	0.386146
1888.54	-0.279505
1890.03	-0.0917311
1891.52	0.427326
1893.02	0.0958652
1894.51	0.131532
1896	0.3601
1897.49	-0.140827
1898.99	0.210261
1900.48	-0.0137644
1901.97	-0.361288
1903.46	0.26338
1904.95	0.3124
1906.44	0.499508
1907.93	0.0786238
1909.42	0.578723
1910.91	0.506874
1912.4	-0.119041
1913.89	0.504618
1915.38	0.33047
1916.86	-0.208058
1918.35	0.414351
1919.84	-0.43685
1921.33	0.0634232
1922.82	0.0270405
1924.3	-0.337332
1925.79	0.268977
1927.28	0.201241
1928.76	-0.0389786
1930.25	0.569193
1931.74	-0.260793
1933.22	0.102531
1934.71	-0.107416
1936.19	-0.0767326
1937.67	0.33305
1939.16	0.37896
1940.64	-0.00653267
1942.13	-0.0282602
1943.61	0.175382
1945.09	0.448755
1946.58	0.0500317
1948.06	0.34062
1949.54	0.0617008
1951.03	-0.372987
1952.51	0.103835
1953.99	-0.245936
1955.47	-0.42348
1956.95	0.344073
1958.43	-0.21006
1959.91	0.31785
1961.39	-0.114361
1962.87	-0.306059
1964.35	0.187499
1965.83	0.0464525
1967.31	0.161533
1968.79	0.0705156
1970.27	0.064455
1971.75	0.00687027
1973.22	-0.0677652
1974.7	0.045414
1976.18	-0.165209
1977.66	0.0845013
1979.13	0.180781
1980.61	-0.369469
1982.09	-0.0692692
1983.56	0.00938225
1985.04	-0.659265
1986.52	0.0805168
1987.99	0.141273
1989.47	0.1176
1990.94	0.230068
1992.41	0.140464
1993.89	-0.100125
1995.36	0.167303
1996.84	0.249179
1998.31	0.263391
1999.78	0.766685
2001.26	0.138283
2002.73	-0.0515528
2004.2	0.0789566
2005.67	-0.0261869
2007.15	0.357998
2008.62	-0.183156
2010.09	0.270128
2011.56	0.403999
2013.03	0.201257
2014.5	0.216868
2015.97	0.635406
2017.44	0.581753
2018.91	0.594454
2020.38	0.0856781
2021.85	0.332964
2023.32	-0.191736
2024.79	0.0230942
2026.25	0.306139
2027.72	-0.0299139
2029.19	0.759411
2030.66	0.392887
2032.13	0.547459
2033.59	0.417273
2035.06	-0.183261
2036.53	0.206538
2037.99	0.49516
2039.46	-0.0904713
2040.92	0.68523
2042.39	0.671446
2043.85	0.591229
2045.32	0.394173
2046.78	0.248269
2048.25	0.169911
2049.71	0.310212
2051.18	0.061717
2052.64	-0.137995
2054.1	0.183167
2055.56	0.384383
2057.03	0.668294
2058.49	0.327652
2059.95	0.206098
2061.42	0.270297
2062.88	1.07598
2064.34	0.0816994
2065.8	0.70427
2067.26	0.738746
2068.72	0.30262
2070.18	0.910391
2071.64	0.491424
2073.1	0.560479
2074.56	0.528219
2076.02	0.377705
2077.48	0.816191
2078.94	0.782703
2080.39	0.765534
2081.85	0.882426
2083.31	0.358878
2084.77	0.810787
2086.22	1.09335
2087.68	1.20682
2089.14	0.798728
2090.6	0.827536
2092.05	1.37666
2093.51	1.05257
2094.96	1.11424
2096.42	1.611
2097.87	1.36939
2099.33	1.29474
2100.78	1.62117
2102.24	1.36256
2103.69	1.57286
2105.15	1.51745
2106.6	1.96424
2108.05	1.21119
2109.51	1.6428
2110.96	2.34022
2112.41	2.10232
2113.86	1.5961
2115.32	1.95388
2116.77	1.62838
2118.22	2.2174
2119.67	2.39226
2121.12	2.35375
2122.57	2.3675
2124.02	2.18411
2125.47	2.28344
2126.92	2.39898
2128.37	2.2314
2129.82	2.50955
2131.27	2.96798
2132.72	2.89519
2134.17	2.83901
2135.62	3.04851
2137.06	3.22676
2138.51	3.01082
2139.96	3.1445
2141.41	3.13164
2142.85	3.15343
2144.3	3.27535
2145.75	3.29826
2147.19	3.387
2148.64	3.70681
2150.09	3.67769
2151.53	3.81287
2152.97	3.83069
2154.42	3.88051
2155.86	3.48238
2157.31	3.58142
2158.75	4.34402
2160.2	4.09808
2161.64	4.15282
2163.08	4.39262
2164.53	4.36946
2165.97	4.14823
2167.41	3.89329
2168.86	4.0189
2170.3	4.37496
2171.74	4.12933
2173.18	3.61472
2174.62	4.07968
2176.06	4.51044
2177.5	4.02686
2178.94	4.09313
2180.38	3.37939
2181.82	3.48149
2183.26	3.95025
2184.7	3.67109
2186.14	3.94092
2187.58	3.84482
2189.02	3.64889
2190.46	3.51944
2191.89	4.07217
2193.33	3.62497
2194.77	3.07603
2196.21	3.73994
2197.64	3.13617
2199.08	3.51176
2200.52	3.00487
2201.95	2.84721
2203.39	2.74043
2204.83	2.81759
2206.26	2.8463
2207.7	2.7597
2209.13	2.7226
2210.57	2.76727
2212	3.04213
2213.43	2.63797
2214.87	2.3003
2216.3	2.80568
2217.73	2.61909
2219.17	2.31883
2220.6	1.92096
2222.03	2.38047
2223.47	2.08093
2224.9	2.53735
2226.33	2.15182
2227.76	1.63331
2229.19	1.82043
2230.62	1.30082
2232.05	1.73253
2233.49	1.4107
2234.91	1.17221
2236.34	1.29496
2237.77	1.0439
2239.2	0.779012
2240.63	1.59314
2242.06	1.52838
2243.49	1.23676
2244.92	1.17388
2246.35	1.2407
2247.78	1.19149
2249.2	0.927886
2250.63	0.971568
2252.06	1.20851
2253.48	1.07007
2254.91	0.769796
2256.34	0.909981
2257.76	1.23119
2259.19	1.08506
2260.61	1.0559
2262.04	0.997059
2263.46	0.566415
2264.89	0.314343
2266.31	0.825821
2267.74	0.718739
2269.16	0.903474
2270.59	0.403719
2272.01	0.961554
2273.43	1.12858
2274.85	0.676761
2276.28	0.648615
2277.7	0.881431
2279.12	0.804696
2280.54	0.597401
2281.97	0.944439
2283.39	0.638967
2284.81	0.529222
2286.23	0.729812
2287.65	0.620704
2289.07	0.544686
2290.49	0.322001
2291.91	0.344655
2293.33	0.694548
2294.75	0.602961
2296.17	0.18383
2297.59	0.190059
2299.01	0.655073
2300.42	0.186481
2301.84	0.324485
2303.26	-0.0948744
2304.68	0.667374
2306.1	0.527056
2307.51	0.33691
2308.93	0.343266
2310.35	0.0858898
2311.76	0.0911179
2313.18	0.524135
2314.59	0.80976
2316.01	-0.155042
2317.43	0.01686
2318.84	0.321295
2320.26	0.559824
2321.67	0.533337
2323.08	0.372705
2324.5	0.143508
2325.91	0.885387
2327.33	0.536448
2328.74	0.978121
2330.15	0.398333
2331.56	0.215242
2332.98	0.527238
2334.39	-0.130784
2335.8	0.100063
2337.21	0.149405
2338.62	-0.147564
2340.04	-0.166118
2341.45	0.224914
2342.86	0.385173
2344.27	-0.110784
2345.68	0.525034
2347.09	0.243169
2348.5	0.207211
2349.91	0.154519
2351.31	0.215495
2352.72	0.242644
2354.13	0.252413
2355.54	0.0495358
2356.95	-0.2021
2358.36	0.213619
2359.76	0.108681
2361.17	-0.125763
2362.58	0.094223
2363.98	0.0221233
2365.39	-0.130771
2366.8	0.0400829
2368.21	-0.0147877
2369.61	0.270295
2371.02	0.314576
2372.42	0.0219469
2373.83	-0.108296
2375.23	-0.0287838
2376.64	0.146784
2378.04	-0.129216
2379.44	0.300502
2380.85	-0.0588741
2382.25	0.110149
2383.66	-0.170587
2385.06	0.028985
2386.46	0.100718
2387.86	0.173253
2389.26	0.0396681
2390.67	-0.0604868
2392.07	-0.143342
2393.47	0.315938
2394.87	0.42577
2396.27	0.806552
2397.67	0.0276213
2399.07	-0.114706
2400.47	0.506075
2401.87	0.221629
2403.27	0.143772
2404.67	0.256077
2406.07	-0.362792
2407.47	0.128524
2408.87	0.0476389
2410.27	0.140858
2411.67	0.297603
2413.07	0.138378
2414.46	-0.146023
2415.86	0.188601
2417.26	0.176345
2418.66	-0.167466
2420.05	0.0274382
2421.45	0.301496
2422.84	-0.153509
2424.24	-0.57722
2425.64	0.235061
2427.03	0.477577
2428.43	0.610201
2429.82	0.347476
2431.22	0.545442
2432.61	0.203985
2434.01	0.44928
2435.4	0.0739355
2436.79	-0.0489283
2438.19	-0.078064
2439.58	0.240932
2440.97	0.495273
2442.37	0.288506
2443.76	0.129198
2445.15	-0.125336
2446.54	0.365335
2447.93	-0.0320082
2449.33	0.20459
2450.72	0.298734
2452.11	0.551662
2453.5	0.330611
2454.89	0.221335
2456.28	0.0495596
2457.67	0.431762
2459.06	0.529032
2460.45	0.530749
2461.84	0.373461
2463.23	0.48409
2464.62	-0.148556
2466	0.166546
2467.39	0.165572
2468.78	0.3381
2470.17	0.100211
2471.55	0.0827436
2472.94	0.253596
2474.33	0.360435
2475.72	-0.0212097
2477.1	0.0217228
2478.49	0.0645361
2479.87	0.170225
2481.26	-0.0846977
2482.65	0.303053
2484.03	-0.218273
2485.42	0.245689
2486.8	0.0357265
2488.19	-0.0344839
2489.57	0.0817137
2490.95	0.135214
2492.34	0.111423
2493.72	0.259631
2495.1	0.424494
2496.49	0.0479631
2497.87	0.416346
2499.25	0.0415506
2500.63	0.00718689
2502.02	0.188404
2503.4	0.275619
2504.78	0.161176
2506.16	-0.0461283
2507.54	-0.283999
2508.92	0.0937128
2510.3	-0.542485
2511.68	0.111955
2513.06	0.520761
2514.44	-0.111666
2515.82	-0.00759029
2517.2	0.173642
2518.58	0.0800543
2519.96	0.124261
2521.34	-0.0151386
2522.72	0.0738735
2524.1	-0.0516567
2525.47	-0.101542
2526.85	0.21384
2528.23	-0.0642385
2529.6	0.100192
2530.98	-0.0226555
2532.36	-0.219629
2533.74	0.359692
2535.11	0.225648
2536.49	0.24347
2537.86	0.184605
2539.24	-0.254951
2540.61	0.0336447
2541.99	0.0636625
2543.36	0.276031
2544.74	0.337514
2546.11	0.0817928
2547.49	0.570641
2548.86	0.195756
2550.23	0.109098
2551.61	-0.0843391
2552.98	0.55594
2554.35	0.390755
2555.72	0.376361
2557.09	0.103529
2558.47	0.300771
2559.84	-0.0930138
2561.21	0.514242
2562.58	0.015729
2563.95	0.260438
2565.32	0.232821
2566.69	0.281229
2568.06	0.481289
2569.43	0.257
2570.8	0.153943
2572.17	0.00544071
2573.54	0.251122
2574.91	-0.0942965
2576.28	-0.424588
2577.65	0.048584
2579.02	0.127332
2580.39	0.114731
2581.75	0.177501
2583.12	0.285349
2584.49	0.317122
2585.85	0.227565
2587.22	0.122993
2588.59	-0.0419931
2589.95	-0.131076
2591.32	0.173698
2592.68	-0.476645
2594.05	-0.142933
2595.42	-0.113326
2596.78	0.202776
2598.15	0.154649
2599.51	-0.135715
2600.88	0.0427723
2602.24	0.161178
2603.6	0.249984
2604.97	0.369483
2606.33	0.157232
2607.69	-0.341714
2609.06	-0.147815
2610.42	-0.136119
2611.78	-0.366601
2613.14	0.184015
2614.51	-0.0933981
2615.87	0.169679
2617.23	0.0427246
2618.59	0.00649834
2619.95	0.105813
2621.31	0.0263071
2622.67	0.0221596
2624.03	0.0630398
2625.39	-0.0752745
2626.75	0.174036
2628.11	0.169312
2629.47	0.194047
2630.83	-0.00465393
2632.19	-0.218028
2633.55	-0.134046
2634.91	0.142706
2636.26	-0.114902
2637.62	-0.209122
2638.98	-0.00702953
2640.34	0.150518
2641.69	-0.0910606
2643.05	-0.0217819
2644.41	-0.188645
2645.76	-0.134085
2647.12	-0.0947742
2648.48	0.444528
2649.83	-0.0628061
2651.19	0.106348
2652.54	0.0692348
2653.9	0.399194
2655.25	-0.120783
2656.6	0.152108
2657.96	-0.305993
2659.31	0.0565186
2660.67	0.302094
2662.02	-0.0080862
2663.37	0.557772
2664.73	0.158687
2666.08	0.255245
2667.43	-0.231785
2668.78	-0.223043
2670.14	-0.417739
2671.49	0.493356
2672.84	-0.165337
2674.19	0.339125
2675.54	-0.273953
2676.89	0.0136118
2678.24	0.258122
2679.59	-0.120112
2680.94	-0.134698
2682.29	-0.278554
2683.64	0.28929
2684.99	0.16216
2686.34	0.0934553
2687.69	0.053525
2689.04	-0.248988
2690.39	0.521005
2691.74	-0.00292778
2693.08	0.414901
2694.43	0.454285
2695.78	0.493437
2697.13	0.344909
2698.47	0.28477
2699.82	0.371241
2701.17	-0.293439
2702.51	0.0570688
2703.86	-0.228715
2705.21	-0.0648136
2706.55	0.403872
2707.9	0.19067
2709.24	0.136535
2710.58	-0.0923214
2711.93	0.201351
2713.27	0.364267
2714.62	0.381843
2715.96	0.486587
2717.3	0.3876
2718.65	0.0846043
2719.99	-0.160731
2721.33	0.422911
2722.68	0.0892115
2724.02	0.395398
2725.36	0.148005
2726.71	-0.128899
2728.05	0.219707
2729.39	0.509772
2730.73	0.377642
2732.07	0.318238
2733.41	0.680793
2734.75	0.461632
2736.09	0.111812
2737.43	0.402087
2738.77	0.168739
2740.11	0.487738
2741.45	0.0209713
2742.79	0.64395
2744.13	-0.0421133
2745.47	0.128732
2746.81	0.487766
2748.14	0.135042
2749.48	0.275954
2750.82	0.707012
2752.16	0.0796824
2753.49	0.105199
2754.83	0.145355
2756.17	-0.335796
2757.5	0.197052
2758.84	0.121894
2760.18	0.40899
2761.51	0.13214
2762.85	-0.115219
2764.18	0.332273
2765.52	0.562663
2766.85	-0.437198
2768.19	0.109952
2769.52	-0.125351
2770.86	-0.202991
2772.19	0.295684
2773.52	0.0133276
2774.86	-0.197046
2776.19	0.34188
2777.52	0.247033
2778.86	0.081027
2780.19	0.174456
2781.52	0.253722
2782.85	0.0746441
2784.19	0.0247927
2785.52	0.0466394
2786.85	0.498328
2788.18	-0.152189
2789.51	-0.414919
2790.84	-0.0329475
2792.17	-0.150863
2793.5	0.274944
2794.83	0.0717478
2796.16	0.125463
2797.49	0.264253
2798.82	-0.411516
2800.15	0.240101
2801.48	0.0491934
2802.81	0.385792
2804.13	-0.247284
2805.46	0.0313702
2806.79	0.365948
2808.12	0.0309095
2809.45	-0.460403
2810.77	0.383926
2812.1	-0.00691032
2813.43	0.270529
2814.75	-0.343914
2816.08	0.0214958
2817.41	0.232054
2818.73	-0.0953884
2820.06	-0.0118074
2821.38	0.0996342
2822.71	0.352041
2824.03	0.5045
2825.36	0.27407
2826.68	0.0721169
2828	0.394647
2829.33	0.420403
2830.65	0.658991
2831.98	0.572209
2833.3	0.485353
2834.62	0.921842
2835.94	0.975564
2837.27	1.07109
2838.59	1.5763
2839.91	1.37391
2841.23	1.77968
2842.55	1.83239
2843.87	1.98479
2845.2	2.26522
2846.52	2.77251
2847.84	2.79976
2849.16	2.84115
2850.48	3.22138
2851.8	2.6964
2853.12	3.20253
2854.44	2.63411
2855.76	3.08288
2857.08	3.1077
2858.39	3.24558
2859.71	3.05857
2861.03	3.40796
2862.35	3.27683
2863.67	4.31672
2864.98	4.21284
2866.3	3.9115
2867.62	4.21705
2868.94	4.60764
2870.25	4.74488
2871.57	4.65674
2872.88	4.6951
2874.2	5.40877
2875.52	5.64167
2876.83	5.97141
2878.15	5.79313
2879.46	6.20531
2880.78	5.90066
2882.09	5.59746
2883.41	5.54873
2884.72	5.66984
2886.03	5.56708
2887.35	5.38024
2888.66	5.68397
2889.97	5.14485
2891.29	5.48836
2892.6	6.25121
2893.91	5.47221
2895.22	5.49256
2896.54	6.15783
2897.85	6.0825
2899.16	6.12053
2900.47	6.08968
2901.78	6.45114
2903.09	6.1694
2904.4	6.32147
2905.71	6.79563
2907.02	7.39648
2908.33	7.88666
2909.64	7.3988
2910.95	7.49932
2912.26	8.04778
2913.57	8.45533
2914.88	8.55288
2916.19	9.08185
2917.5	9.70624
2918.81	9.62923
2920.11	8.68493
2921.42	9.65773
2922.73	9.96095
2924.04	9.88883
2925.34	10.0421
2926.65	10.5038
2927.96	10.4624
2929.26	10.2945
2930.57	10.5872
2931.87	10.8511
2933.18	10.7512
2934.49	10.7071
2935.79	9.72693
2937.1	10.466
2938.4	10.283
2939.7	9.62534
2941.01	9.94661
2942.31	9.23511
2943.62	9.55949
2944.92	9.50857
2946.22	8.844
2947.53	8.40365
2948.83	7.9066
2950.13	7.95367
2951.43	8.04027
2952.74	8.01219
2954.04	7.22612
2955.34	6.95775
2956.64	7.30653
2957.94	6.90229
2959.24	6.99164
2960.54	7.05685
2961.84	6.94271
2963.15	6.42258
2964.45	5.84475
2965.75	6.24771
2967.05	5.77756
2968.34	5.95204
2969.64	5.52098
2970.94	5.55374
2972.24	5.43217
2973.54	5.08582
2974.84	5.59796
2976.14	5.03945
2977.43	4.52137
2978.73	4.28275
2980.03	4.63327
2981.33	4.13765
2982.62	4.24654
2983.92	3.82157
2985.22	3.63722
2986.51	3.56727
2987.81	3.26027
2989.11	2.75775
2990.4	2.53657
2991.7	2.72239
2992.99	2.61186
2994.29	2.02218
2995.58	2.33048
2996.88	2.24461
2998.17	1.84988
2999.46	2.08702
3000.76	1.5815
3002.05	1.69377
3003.34	1.42815
3004.64	1.48503
3005.93	1.33153
3007.22	0.883533
3008.52	0.980702
3009.81	0.811152
3011.1	0.906514
3012.39	0.568512
3013.68	1.05414
3014.97	0.605588
3016.27	0.228139
3017.56	0.57595
3018.85	0.381311
3020.14	0.353889
3021.43	0.534539
3022.72	0.561283
3024.01	0.364919
3025.3	0.362226
3026.59	0.096221
3027.88	0.467785
3029.16	0.162558
3030.45	0.53645
3031.74	0.483522
3033.03	0.776986
3034.32	0.0908194
3035.6	0.659963
3036.89	0.0828075
3038.18	0.386245
3039.47	0.232986
3040.75	0.408298
3042.04	0.650821
3043.33	0.728232
3044.61	0.272683
3045.9	0.777184
3047.18	0.531956
3048.47	0.235189
3049.75	0.746311
3051.04	1.16354
3052.32	0.763024
3053.61	0.608223
3054.89	0.930263
3056.18	0.364556
3057.46	0.629684
3058.74	0.689371
3060.03	0.408394
3061.31	0.713372
3062.59	0.788002
3063.88	0.701097
3065.16	0.452918
3066.44	0.464714
3067.72	0.423304
3069	0.355199
3070.29	0.463688
3071.57	0.435299
3072.85	0.582438
3074.13	0.401948
3075.41	0.397314
3076.69	0.365279
3077.97	0.265967
3079.25	-0.211871
3080.53	0.0854349
3081.81	0.343744
3083.09	-0.0205069
3084.37	-0.139805
3085.65	0.297481
3086.93	-0.31065
3088.21	0.247839
3089.49	0.208478
3090.76	-0.536855
3092.04	0.101865
3093.32	0.0352983
3094.6	0.186173
3095.87	-0.272729
3097.15	0.122777
3098.43	0.0302725
3099.7	0.412035
3100.98	0.143414
3102.26	-0.151938
3103.53	0.148993
3104.81	0.0579309
3106.08	0.292618
3107.36	-0.0264487
3108.63	-0.0871673
3109.91	0.110525
3111.18	0.702152
3112.46	0.577261
3113.73	0.276696
3115	0.545342
3116.28	0.108648
3117.55	0.566149
3118.83	0.236004
3120.1	0.298153
3121.37	0.576364
3122.64	0.582841
3123.92	0.724701
3125.19	0.56894
3126.46	0.833519
3127.73	0.584579
3129	0.390638
3130.27	0.684071
3131.55	0.558618
3132.82	0.703494
3134.09	0.564381
3135.36	0.478984
3136.63	0.717064
3137.9	0.442156
3139.17	0.544638
3140.44	0.996868
3141.71	0.789689
3142.98	0.717735
3144.24	0.753992
3145.51	0.992297
3146.78	1.13735
3148.05	0.948212
3149.32	0.800331
