200.43	0.135908
202.244	0.167624
204.059	0.2003
205.873	0.476929
207.688	0.777757
209.501	0.931734
211.314	0.574125
213.127	-0.02738
214.941	0.122534
216.753	-0.286076
218.564	0.322956
220.375	-0.0123644
222.186	0.040472
223.999	0.0456343
225.809	-0.335528
227.618	-0.185049
229.428	0.0854692
231.236	-0.0794382
233.045	0.117146
234.855	0.241387
236.663	0.366571
238.471	-0.157126
240.278	0.0204773
242.085	-0.330256
243.891	0.308922
245.698	0.176155
247.503	0.16228
249.309	-0.458115
251.116	0.535982
252.921	0.174969
254.725	0.0776634
256.529	0.196826
258.333	-0.575159
260.136	0.437598
261.939	0.367743
263.742	0.75717
265.544	0.256153
267.346	0.405863
269.148	0.241802
270.949	0.149046
272.75	0.344302
274.55	0.248672
276.351	0.0548658
278.15	0.341143
279.95	-0.362479
281.749	0.328635
283.548	0.41546
285.346	0.428448
287.144	0.248465
288.942	0.692095
290.739	-0.134089
292.536	0.693834
294.333	0.589189
296.129	0.988161
297.925	0.455767
299.721	0.091404
301.514	0.347969
303.309	0.603432
305.104	0.66639
306.898	-0.106593
308.692	-0.0685883
310.486	0.327168
312.279	0.580757
314.072	1.09772
315.862	0.568739
317.654	0.0890884
319.446	-0.151155
321.238	0.372133
323.029	0.753566
324.819	0.229071
326.608	0.420228
328.398	1.3042
330.188	0.467229
331.977	0.441283
333.766	0.293882
335.553	0.598853
337.341	0.0878773
339.129	0.388289
340.917	-0.293639
342.704	0.697382
344.489	0.158189
346.275	0.0736465
348.062	0.324054
349.845	0.168923
351.631	-0.177099
353.416	0.0968523
355.201	0.059453
356.984	0.545275
358.768	0.218973
360.552	0.558652
362.333	0.325707
364.116	0.662961
365.899	0.167352
367.68	0.0278101
369.462	0.0061903
371.243	1.21539
373.023	0.835929
374.804	-0.0394068
376.585	0.196707
378.363	0.362007
380.143	0.433595
381.923	0.153113
383.7	0.721039
385.479	-0.00338936
387.256	0.307942
389.034	0.103328
390.812	0.275519
392.588	0.565853
394.365	-0.364409
396.14	-0.049696
397.916	-0.0636892
399.691	0.250924
401.467	0.00139236
403.24	0.0565472
405.015	0.439744
406.788	0.751609
408.563	-0.0407457
410.335	0.199656
412.109	0.346085
413.88	0.211256
415.654	0.56986
417.424	0.295703
419.197	0.726145
420.967	0.147705
422.739	0.22612
424.508	0.303843
426.279	0.521509
428.048	0.644381
429.819	0.297259
431.587	0.255253
433.356	0.260479
435.124	0.665001
436.891	-0.103993
438.66	-0.00528145
440.426	-0.0722475
442.194	0.210732
443.96	0.374078
445.725	0.582164
447.492	0.367342
449.257	0.409616
451.021	0.358425
452.787	-0.0892181
454.551	-0.232695
456.314	-0.515818
458.079	-0.12329
459.842	0.105766
461.604	0.381619
463.368	0.00788403
465.13	-0.316787
466.891	-0.150765
468.654	0.877912
470.415	0.746685
472.175	-0.151913
473.935	-0.0278072
475.696	0.304345
477.456	-0.250705
479.215	0.217348
480.973	0.381533
482.733	0.522511
484.491	-0.336865
486.249	-0.00657654
488.006	0.722254
489.765	1.03427
491.522	-0.216126
493.278	0.681501
495.034	0.949575
496.789	0.445598
498.544	0.479284
500.301	0.301535
502.056	0.381003
503.81	0.483204
505.564	0.72542
507.317	0.331586
509.071	0.641603
510.825	0.479575
512.578	0.221772
514.33	0.621316
516.082	0.784098
517.833	0.945539
519.585	-0.140097
521.335	0.889164
523.086	-0.00879383
524.836	0.220607
526.586	0.332444
528.335	0.491087
530.085	0.321383
531.835	0.573052
533.584	0.238451
535.332	0.604854
537.08	0.385002
538.827	0.0707703
540.574	0.478975
542.321	0.163347
544.068	0.31338
545.814	-0.396731
547.56	0.867762
549.305	0.0200062
551.05	0.679542
552.795	0.135015
554.54	0.215728
556.282	0.181143
558.025	0.677388
559.769	0.482047
561.512	0.0804558
563.255	0.393148
564.997	-0.121491
566.739	-0.54293
568.481	0.368435
570.223	0.155526
571.964	-0.147634
573.705	-0.150883
575.443	-0.0147772
577.183	-0.129399
578.923	-0.0821123
580.663	0.310502
582.402	0.0832119
584.141	0.0621138
585.879	-0.0519714
587.615	0.338762
589.353	0.0842419
591.09	0.219897
592.828	-0.151135
594.564	0.0988874
596.299	0.279935
598.035	-0.321268
599.771	-0.255589
601.506	-0.121674
603.242	0.286976
604.974	0.257142
606.709	0.0422029
608.443	-0.0125513
610.177	-0.159186
611.908	0.0618134
613.642	0.0770178
615.374	0.253325
617.105	0.177695
618.837	-0.0586672
620.569	0.047513
622.3	0.175251
624.03	-0.178082
625.761	0.0858307
627.491	-0.33448
629.219	0.0462084
630.949	0.0639029
632.677	-0.0532827
634.406	0.241393
636.135	0.261979
637.861	0.212432
639.59	0.0233335
641.318	0.356105
643.043	0.161809
644.77	-0.0334253
646.495	-0.591983
648.222	0.51142
649.948	0.571549
651.672	0.181153
653.398	0.36274
655.121	0.479665
656.846	0.0982294
658.569	1.06184
660.293	0.224504
662.015	0.525929
663.738	0.139933
665.46	0.665652
667.183	0.846723
668.903	0.22656
670.626	0.430345
672.346	0.498894
674.067	0.0432768
675.787	0.0245428
677.508	0.603569
679.226	0.196363
680.947	0.224231
682.665	0.894596
684.385	-0.139791
686.102	0.78032
687.821	0.708924
689.538	0.45212
691.254	0.931676
692.972	0.535269
694.688	0.506695
696.406	0.431087
698.121	0.676636
699.835	0.483533
701.552	0.887396
703.266	0.692243
704.98	0.473662
706.695	1.17286
708.409	0.907422
710.121	0.504536
711.836	1.08637
713.548	0.751954
715.26	0.669313
716.973	0.15295
718.685	0.892249
720.396	0.58202
722.108	0.636829
723.818	0.873644
725.528	1.36001
727.238	0.368879
728.949	1.33065
730.658	0.408504
732.367	0.50695
734.075	0.582374
735.785	0.635079
737.493	1.32031
739.2	1.08001
740.907	1.44975
742.614	1.34717
744.322	1.33619
746.028	1.21422
747.734	0.868828
749.439	1.0198
751.144	1.28451
752.849	1.1907
754.555	1.54824
756.26	1.36743
757.963	1.52584
759.667	0.829833
761.37	1.28388
763.073	0.949458
764.775	1.74329
766.477	1.00063
768.179	1.61165
769.883	1.45205
771.584	1.44858
773.285	0.946132
774.986	1.75469
776.686	1.61409
778.386	1.85921
780.085	1.72155
781.785	1.72076
783.484	1.90121
785.182	2.05798
786.881	1.57847
788.579	1.82003
790.276	0.904377
791.974	1.56936
793.671	1.35087
795.367	2.55363
797.064	1.5239
798.76	1.28576
800.456	1.61247
802.151	1.78285
803.846	1.43656
805.541	2.03459
807.234	1.17073
808.928	1.83366
810.622	1.57441
812.315	1.98729
814.008	1.74914
815.701	1.60065
817.394	1.51947
819.086	1.88547
820.778	2.00541
822.468	2.19249
824.159	1.82271
825.85	2.3685
827.541	1.35686
829.231	1.5957
830.921	2.06034
832.609	1.21373
834.298	1.77286
835.987	1.17387
837.676	1.37744
839.364	1.15584
841.051	1.6696
842.738	1.55669
844.426	2.15827
846.113	1.2409
847.798	1.84518
849.484	1.71428
851.171	1.38427
852.857	1.16771
854.54	1.40041
856.226	1.40886
857.911	1.91084
859.593	1.51188
861.278	1.31312
862.961	1.6306
864.645	1.74417
866.327	1.45105
868.01	0.728672
869.692	1.22341
871.373	0.815708
873.055	1.89668
874.735	0.924558
876.416	1.35132
878.097	1.21397
879.776	1.18934
881.457	1.23206
883.135	0.709673
884.815	1.58583
886.495	1.33181
888.172	0.264116
889.851	1.04496
891.528	1.39525
893.206	0.595142
894.882	1.14523
896.56	1.58082
898.237	1.54289
899.912	1.36948
901.589	1.41965
903.263	1.55862
904.94	1.33942
906.614	0.897814
908.289	0.814576
909.962	1.2446
911.635	0.984988
913.31	1.25997
914.982	1.55702
916.656	1.1215
918.328	1.17431
920.001	1.62566
921.672	1.1919
923.345	1.2905
925.015	0.683748
926.685	1.42632
928.357	1.00023
930.026	1.03905
931.698	1.58601
933.366	0.743309
935.035	1.00387
936.705	0.735464
938.373	0.798749
940.041	0.797061
941.71	1.21572
943.377	0.642364
945.044	0.620378
946.712	0.840113
948.378	0.903539
950.044	0.942957
951.709	0.716347
953.376	1.43825
955.041	0.573737
956.706	0.792534
958.372	1.05875
960.036	0.62176
961.699	1.13555
963.362	1.65
965.027	0.615144
966.69	1.36881
968.352	0.902891
970.014	0.899429
971.676	1.13835
973.339	1.13434
975	0.623178
976.661	0.202232
978.322	0.932902
979.982	0.845913
981.642	0.758499
983.303	0.713991
984.962	0.800365
986.621	0.685431
988.28	0.944862
989.938	1.55656
991.596	0.266267
993.254	1.18599
994.911	0.912711
996.57	1.14727
998.227	1.86661
999.884	1.13049
1001.54	2.02447
1003.2	1.33229
1004.85	1.19049
1006.51	0.323572
1008.16	0.534018
1009.82	0.766421
1011.47	1.30596
1013.12	0.223483
1014.78	0.456894
1016.43	0.734208
1018.08	0.508492
1019.74	0.874286
1021.39	0.125815
1023.04	0.362453
1024.69	0.272121
1026.34	0.466464
1028	0.0708532
1029.65	0.701519
1031.3	0.391569
1032.95	0.669692
1034.6	-0.0795622
1036.25	0.827791
1037.9	1.38436
1039.54	0.568577
1041.19	0.711738
1042.84	0.921212
1044.49	0.871518
1046.14	0.780409
1047.78	0.49581
1049.43	0.516928
1051.08	0.278665
1052.72	-0.1544
1054.37	0.281895
1056.02	-0.0205879
1057.66	-0.127822
1059.31	0.677628
1060.95	0.460637
1062.6	0.351571
1064.24	0.654716
1065.88	0.152373
1067.53	0.257728
1069.17	0.535852
1070.81	0.443912
1072.45	0.0263042
1074.1	0.846264
1075.74	0.365214
1077.38	0.276073
1079.02	0.0797539
1080.66	0.274518
1082.3	0.360858
1083.94	0.0777473
1085.58	0.0749855
1087.22	0.915281
1088.86	0.280095
1090.5	0.46624
1092.14	0.758936
1093.78	0.769806
1095.42	-0.233239
1097.05	0.124362
1098.69	0.13803
1100.33	0.626968
1101.96	1.87049
1103.6	2.36222
1105.24	2.14549
1106.87	1.71441
1108.51	1.00353
1110.14	0.979766
1111.78	0.739445
1113.41	0.626552
1115.05	0.920372
1116.68	0.397955
1118.31	0.562346
1119.95	0.812895
1121.58	0.828626
1123.21	0.588614
1124.85	0.97025
1126.48	0.561164
1128.11	1.05121
1129.74	0.194814
1131.37	-0.211845
1133	0.322461
1134.63	0.236662
1136.26	-0.255812
1137.89	0.0842466
1139.52	-0.281933
1141.15	0.0984612
1142.78	0.115208
1144.41	0.238688
1146.04	-0.170252
1147.66	-0.173049
1149.29	0.123256
1150.92	0.185588
1152.55	0.0136604
1154.17	0.0756664
1155.8	-0.139439
1157.43	-0.418366
1159.05	0.239056
1160.68	-0.230067
1162.3	0.471441
1163.93	-0.399492
1165.55	0.0057888
1167.17	-0.0994473
1168.8	0.347072
1170.42	0.302901
1172.05	0.554236
1173.67	-0.00331211
1175.29	0.223645
1176.91	0.322519
1178.54	-0.108151
1180.16	0.351504
1181.78	-0.161645
1183.4	0.616111
1185.02	-0.381865
1186.64	0.204207
1188.26	0.344743
1189.88	0.1458
1191.5	0.113814
1193.12	-0.10882
1194.74	-0.0797377
1196.36	-0.0297546
1197.97	0.544417
1199.59	0.721562
1201.21	0.858973
1202.83	0.644001
1204.44	0.223253
1206.06	1.05682
1207.68	0.514607
1209.29	0.53604
1210.91	0.410677
1212.52	0.554721
1214.14	0.883918
1215.75	0.66896
1217.37	0.785321
1218.98	1.21207
1220.59	0.828181
1222.21	0.839787
1223.82	0.749052
1225.43	0.825657
1227.05	0.717499
1228.66	1.10729
1230.27	1.14661
1231.88	1.06316
1233.49	1.35304
1235.1	1.00351
1236.72	1.21329
1238.33	1.81702
1239.94	1.38784
1241.55	2.13763
1243.16	1.10821
1244.76	1.07079
1246.37	1.38409
1247.98	1.63422
1249.59	0.745522
1251.2	0.932445
1252.8	1.80213
1254.41	1.4521
1256.02	1.74446
1257.62	1.70721
1259.23	1.11253
1260.84	1.36712
1262.44	1.56029
1264.05	1.07003
1265.66	0.869122
1267.26	1.62084
1268.86	1.00357
1270.47	1.96084
1272.07	0.968021
1273.67	1.52913
1275.28	1.81954
1276.88	0.824007
1278.48	1.21615
1280.09	1.13109
1281.69	1.60459
1283.29	1.3744
1284.89	1.97213
1286.49	1.41274
1288.09	1.7435
1289.69	1.72383
1291.29	1.76671
1292.89	1.56157
1294.49	1.62426
1296.09	1.93337
1297.69	1.8689
1299.29	1.34878
1300.89	1.98223
1302.49	1.62456
1304.08	2.15139
1305.68	2.12129
1307.28	1.55668
1308.88	1.81356
1310.47	1.70099
1312.07	1.44577
1313.66	1.72359
1315.26	2.3902
1316.85	1.68882
1318.45	1.82563
1320.04	2.53294
1321.64	1.52705
1323.23	1.62024
1324.83	2.1382
1326.42	1.45561
1328.01	2.23384
1329.61	1.57308
1331.2	1.13804
1332.79	1.71647
1334.38	1.38779
1335.97	2.23166
1337.56	2.30886
1339.16	1.27664
1340.75	1.89569
1342.34	1.60582
1343.93	1.99783
1345.52	1.9259
1347.11	1.27275
1348.7	1.56424
1350.29	1.35748
1351.87	1.65376
1353.46	1.61211
1355.05	1.29211
1356.64	0.892765
1358.22	1.37218
1359.81	1.75042
1361.4	1.08929
1362.98	1.58494
1364.57	1.56127
1366.16	1.23903
1367.74	1.81409
1369.33	0.558605
1370.91	1.07653
1372.5	1.07834
1374.08	0.862447
1375.67	1.42329
1377.25	1.22813
1378.83	1.47022
1380.41	1.1143
1382	1.05552
1383.58	1.07496
1385.16	1.35172
1386.74	1.05158
1388.33	0.990164
1389.91	1.50511
1391.49	0.552275
1393.07	1.14814
1394.65	0.673141
1396.23	0.356813
1397.81	0.29767
1399.39	1.18871
1400.97	0.850032
1402.55	0.986143
1404.13	0.726394
1405.7	0.843128
1407.28	0.980397
1408.86	1.03942
1410.44	0.111324
1412.01	1.31638
1413.59	0.901395
1415.17	0.86069
1416.74	0.858591
1418.32	0.856077
1419.89	1.20847
1421.47	1.2072
1423.04	0.735142
1424.62	1.68207
1426.19	2.11853
1427.77	0.902302
1429.34	0.886405
1430.91	0.771196
1432.49	1.38295
1434.06	1.30484
1435.63	1.9933
1437.2	1.32495
1438.78	1.50293
1440.35	2.56634
1441.92	2.35324
1443.49	1.41378
1445.06	2.06668
1446.63	2.1695
1448.2	2.37079
1449.77	2.55279
1451.34	2.81402
1452.91	2.17132
1454.48	1.76481
1456.05	1.84999
1457.62	2.6233
1459.18	2.50972
1460.75	2.02028
1462.32	2.09947
1463.89	1.94079
1465.45	1.50587
1467.02	0.73708
1468.59	1.42233
1470.15	1.30324
1471.72	1.02849
1473.28	0.872684
1474.85	1.22759
1476.41	1.44559
1477.98	0.761844
1479.54	0.470252
1481.1	0.825418
1482.67	0.710083
1484.23	0.339932
1485.79	0.20465
1487.36	1.04795
1488.92	0.714693
1490.48	1.12341
1492.04	0.629929
1493.61	0.721056
1495.17	0.673585
1496.73	0.118494
1498.29	0.615388
1499.85	0.275846
1501.41	0.734089
1502.97	0.378057
1504.53	0.798619
1506.09	0.30889
1507.65	0.399643
1509.2	0.122149
1510.76	0.114286
1512.32	0.240492
1513.88	0.000294685
1515.43	0.318311
1516.99	-0.189409
1518.55	1.01148
1520.1	-0.0116663
1521.66	0.249635
1523.22	0.318913
1524.77	0.253637
1526.33	0.587925
1527.88	0.330121
1529.44	0.718938
1530.99	0.707896
1532.54	0.450902
1534.1	0.479518
1535.65	0.717179
1537.21	0.841914
1538.76	0.287628
1540.31	0.885081
1541.86	0.74678
1543.42	0.571018
1544.97	0.790221
1546.52	0.595559
1548.07	0.157205
1549.62	0.656899
1551.17	0.350589
1552.72	0.644
1554.27	0.750914
1555.82	1.04582
1557.37	0.894205
1558.92	0.576821
1560.47	1.43682
1562.02	0.638086
1563.56	1.16505
1565.11	1.48751
1566.66	0.839766
1568.21	0.994177
1569.75	1.12956
1571.3	1.39523
1572.85	1.58594
1574.39	1.5525
1575.94	2.0231
1577.49	1.09384
1579.03	1.47177
1580.57	1.99983
1582.12	1.5391
1583.66	1.84499
1585.21	1.90896
1586.75	1.52482
1588.3	1.38367
1589.84	1.39189
1591.38	1.17503
1592.92	1.80015
1594.47	1.54501
1596.01	1.4209
1597.55	1.25965
1599.09	1.94272
1600.63	0.976392
1602.17	1.64244
1603.71	1.5956
1605.25	1.75467
1606.79	1.96878
1608.33	1.25987
1609.87	1.48826
1611.41	1.3947
1612.95	1.61839
1614.49	1.42753
1616.03	1.33021
1617.57	1.6271
1619.1	1.40032
1620.64	1.19404
1622.18	1.23271
1623.72	1.34712
1625.25	1.59258
1626.79	1.65002
1628.32	1.06995
1629.86	1.23693
1631.39	1.06623
1632.93	1.62374
1634.46	0.930205
1636	1.48828
1637.53	0.927822
1639.07	1.24467
1640.6	1.26316
1642.13	1.67224
1643.67	1.55842
1645.2	1.20154
1646.73	1.9599
1648.26	1.86207
1649.8	1.87617
1651.33	2.31812
1652.86	1.70375
1654.39	1.8513
1655.92	1.70289
1657.45	2.3142
1658.98	2.05372
1660.51	1.62545
1662.04	1.91763
1663.57	2.61482
1665.1	2.20201
1666.63	1.21813
1668.16	1.80442
1669.68	1.9492
1671.21	1.78226
1672.74	2.05869
1674.27	1.37792
1675.79	1.69144
1677.32	1.65425
1678.85	1.08244
1680.37	1.41103
1681.9	1.8303
1683.42	1.66106
1684.95	0.849841
1686.47	1.4521
1688	1.35763
1689.52	0.842356
1691.05	0.822225
1692.57	0.582589
1694.09	1.18453
1695.62	1.10925
1697.14	0.887608
1698.66	1.04935
1700.18	0.881943
1701.71	0.677739
1703.23	0.564363
1704.75	0.632692
1706.27	0.190989
1707.79	0.349658
1709.31	0.45348
1710.83	0.030901
1712.35	0.0987921
1713.87	-0.105042
1715.39	0.180291
1716.91	0.302308
1718.43	0.170966
1719.95	0.31063
1721.47	-0.289527
1722.99	-0.239183
1724.5	-0.00781345
1726.02	-0.0996113
1727.54	0.547945
1729.06	0.386285
1730.57	-0.166466
1732.09	0.303121
1733.61	0.0934944
1735.12	-0.019001
1736.64	0.14618
1738.15	0.106453
1739.67	0.602403
1741.18	0.185709
1742.7	0.145296
1744.21	-0.350155
1745.72	-0.0387087
1747.24	0.106415
1748.75	-0.304414
1750.26	0.416642
1751.77	-0.0323305
1753.29	0.249349
1754.8	0.135218
1756.31	0.0376844
1757.82	-0.010787
1759.33	-0.207439
1760.84	0.127057
1762.36	0.119095
1763.87	-0.202861
1765.38	-0.0949535
1766.89	-0.13276
1768.4	-0.00653458
1769.91	-0.299366
1771.41	0.23145
1772.92	-0.0661669
1774.43	0.0761356
1775.94	-0.3507
1777.45	-0.16608
1778.95	0.220878
1780.46	0.292981
1781.97	0.0657196
1783.48	-0.0657806
1784.98	0.283643
1786.49	-0.451083
1787.99	0.0328379
1789.5	-0.121552
1791.01	-0.192885
1792.51	-0.136127
1794.01	0.0619736
1795.52	0.269299
1797.02	-0.0150661
1798.53	0.196091
1800.03	-0.113302
1801.53	0.226399
1803.04	0.098567
1804.54	-0.0676365
1806.04	0.110361
1807.54	0.123229
1809.05	0.311551
1810.55	0.225076
1812.05	0.366253
1813.55	0.0900116
1815.05	0.0174446
1816.55	0.345156
1818.05	0.161154
1819.55	0.0451097
1821.05	0.372691
1822.55	0.140166
1824.05	0.265068
1825.55	0.194901
1827.05	0.13569
1828.55	-0.0565567
1830.04	0.204073
1831.54	0.158439
1833.04	0.0854979
1834.54	-0.093153
1836.03	0.136495
1837.53	0.288447
1839.03	0.161675
1840.52	-0.155175
1842.02	0.224707
1843.51	0.124155
1845.01	0.201046
1846.5	0.606345
1848	0.00473309
1849.49	0.428385
1850.99	0.420896
1852.48	0.231043
1853.97	0.0623341
1855.47	0.166825
1856.96	-0.356566
1858.45	-0.171683
1859.94	0.330661
1861.44	0.0789928
1862.93	0.027833
1864.42	0.325807
1865.91	0.469357
1867.4	0.314151
1868.89	0.260604
1870.38	0.414269
1871.87	0.0932674
1873.36	0.0606556
1874.85	0.112649
1876.34	0.241744
1877.83	0.255967
1879.32	0.53314
1880.81	0.466378
1882.3	0.455338
1882.57	0.461019
1884.07	0.425249
1885.56	0.249284
1887.06	0.560274
1888.55	0.0871067
1890.04	0.240988
1891.54	0.291387
1893.03	0.638959
1894.52	0.258129
1896.02	0.122237
1897.51	0.630593
1899	0.530171
1900.49	0.428643
1901.98	0.725532
1903.47	0.550896
1904.96	0.0967712
1906.45	0.319899
1907.94	0.560147
1909.43	0.384234
1910.92	0.348224
1912.41	-0.432773
1913.9	0.382683
1915.39	0.0187654
1916.88	0.261435
1918.37	0.0874739
1919.85	0.0517864
1921.34	-0.0185976
1922.83	0.742623
1924.32	0.240614
1925.8	0.25921
1927.29	-0.0154467
1928.78	0.247206
1930.26	0.405957
1931.75	0.459981
1933.23	0.425918
1934.72	0.753549
1936.2	0.24871
1937.69	0.815223
1939.17	0.706682
1940.66	0.581345
1942.14	0.24996
1943.63	0.523696
1945.11	0.401485
1946.59	0.17628
1948.07	0.0888252
1949.56	0.190172
1951.04	0.410944
1952.52	0.33801
1954	0.161425
1955.48	0.517684
1956.96	0.37589
1958.45	0.337938
1959.93	0.197837
1961.41	0.24701
1962.89	0.450582
1964.37	0.242594
1965.85	0.411009
1967.32	0.937948
1968.8	0.522829
1970.28	0.483679
1971.76	0.529703
1973.24	0.353722
1974.72	0.519196
1976.19	0.446011
1977.67	0.696701
1979.15	0.130152
1980.63	0.465816
1982.1	0.698857
1983.58	0.302773
1985.05	0.314267
1986.53	0.189813
1988	0.0824842
1989.48	0.195766
1990.95	0.495711
1992.43	0.238133
1993.9	0.79326
1995.38	0.486944
1996.85	0.367098
1998.32	0.264154
1999.8	0.245238
2001.27	0.52946
2002.74	0.54304
2004.22	0.118172
2005.69	0.199551
2007.16	0.298445
2008.63	0.0614548
2010.1	0.162117
2011.57	0.397921
2013.04	0.414887
2014.51	0.599679
2015.98	0.346148
2017.45	0.344113
2018.92	0.29081
2020.39	0.354616
2021.86	0.0319767
2023.33	0.431743
2024.8	0.0433865
2026.27	0.277081
2027.74	0.445039
2029.2	0.832556
2030.67	0.483417
2032.14	0.218976
2033.61	0.105908
2035.07	0.496525
2036.54	0.68541
2038.01	0.655393
2039.47	0.490488
2040.94	0.275029
2042.4	0.127112
2043.87	0.585379
2045.33	0.708375
2046.8	0.529219
2048.26	0.282779
2049.72	0.928981
2051.19	0.023468
2052.65	0.279518
2054.12	0.145913
2055.58	0.0949183
2057.04	0.834894
2058.5	0.427689
2059.97	0.307002
2061.43	0.607757
2062.89	0.421012
2064.35	-0.0339127
2065.81	-0.0334082
2067.27	0.371802
2068.73	0.676654
2070.19	0.59472
2071.65	0.428636
2073.11	0.228675
2074.57	0.365181
2076.03	0.0635214
2077.49	0.620333
2078.95	0.284204
2080.41	0.402284
2081.87	0.14937
2083.32	0.501852
2084.78	0.382221
2086.24	0.295571
2087.7	0.544643
2089.15	0.238475
2090.61	0.26834
2092.07	0.516335
2093.52	0.612951
2094.98	0.491173
2096.43	0.402538
2097.89	0.0621176
2099.34	0.0897655
2100.8	0.568564
2102.25	0.779506
2103.71	0.439973
2105.16	0.252334
2106.61	0.433235
2108.07	0.54833
2109.52	0.396879
2110.97	0.228268
2112.43	0.541679
2113.88	0.836377
2115.33	0.0308542
2116.78	0.422758
2118.23	0.0170593
2119.68	0.409965
2121.13	0.787713
2122.59	0.653012
2124.04	0.652478
2125.49	0.437008
2126.94	0.569451
2128.39	0.568214
2129.83	0.250755
2131.28	0.246988
2132.73	0.523849
2134.18	0.419896
2135.63	0.31684
2137.08	0.645039
2138.53	0.793139
2139.97	0.232472
2141.42	1.16096
2142.87	0.685596
2144.31	0.706798
2145.76	0.446768
2147.21	0.782273
2148.65	0.902055
2150.1	0.557139
2151.54	0.608763
2152.99	0.95766
2154.43	0.377881
2155.88	0.592956
2157.32	0.808068
2158.77	0.775412
2160.21	0.379609
2161.65	0.714457
2163.1	0.553985
2164.54	0.792968
2165.98	0.983277
2167.43	1.05743
2168.87	1.09732
2170.31	0.58655
2171.75	1.00499
2173.19	0.506593
2174.64	0.456043
2176.07	0.787461
2177.52	1.2021
2178.96	0.852646
2180.4	1.20247
2181.84	1.4202
2183.28	1.02329
2184.72	0.859363
2186.15	0.895077
2187.59	0.514835
2189.03	0.983249
2190.47	0.569584
2191.91	0.838088
2193.35	1.17249
2194.78	1.07263
2196.22	0.854401
2197.66	0.700859
2199.09	0.72868
2200.53	1.0711
2201.97	1.03104
2203.4	0.576963
2204.84	0.555631
2206.27	0.568469
2207.71	0.946248
2209.14	1.24069
2210.58	0.838884
2212.01	0.386877
2213.45	1.07522
2214.88	0.507183
2216.31	0.402699
2217.75	0.414925
2219.18	0.840609
2220.61	0.805255
2222.05	1.00075
2223.48	0.602256
2224.91	0.647285
2226.34	0.443703
2227.78	0.320995
2229.21	0.689944
2230.64	0.811249
2232.07	0.784595
2233.5	0.529147
2234.93	0.193224
2236.36	0.708589
2237.79	0.653375
2239.22	0.42068
2240.65	0.434825
2242.08	0.48337
2243.5	0.157988
2244.93	0.0938692
2246.36	0.355307
2247.79	0.321551
2249.22	0.693206
2250.64	0.492003
2252.07	0.289337
2253.5	0.687892
2254.92	0.289974
2256.35	0.673388
2257.78	0.215013
2259.2	0.051753
2260.63	-0.124928
2262.05	0.382324
2263.48	0.290689
2264.9	0.507979
2266.33	0.0747137
2267.75	0.421095
2269.18	0.522717
2270.6	0.200345
2272.02	0.20297
2273.45	0.238003
2274.87	0.27313
2276.29	0.243304
2277.71	0.767771
2279.14	0.232902
2280.56	0.333653
2281.98	0.825788
2283.4	0.0455112
2284.82	0.390895
2286.24	0.459183
2287.66	0.315613
2289.08	0.237721
2290.5	0.0948029
2291.92	0.262634
2293.34	0.57792
2294.76	0.189892
2296.18	0.161555
2297.6	0.165888
2299.02	0.465166
2300.44	0.420705
2301.86	-0.115451
2303.27	0.0536041
2304.69	0.321473
2306.11	0.441725
2307.53	0.315263
2308.94	0.0895081
2310.36	0.24121
2311.78	0.376169
2313.19	0.379556
2314.61	0.251679
2316.02	0.223242
2317.44	0.27793
2318.85	0.00340939
2320.27	0.124187
2321.68	0.194466
2323.1	-0.100192
2324.51	0.593048
2325.92	-0.102122
2327.34	0.669252
2328.75	0.351342
2330.16	0.528133
2331.58	0.359942
2332.99	0.176556
2334.4	0.257375
2335.81	0.140976
2337.23	0.188624
2338.64	0.284574
2340.05	0.0835085
2341.46	0.243011
2342.87	0.385391
2344.28	0.199574
2345.69	0.407607
2347.1	-0.285158
2348.51	0.037797
2349.92	0.114586
2351.33	0.255861
2352.74	0.281582
2354.15	0.453144
2355.55	0.313971
2356.96	0.142201
2358.37	0.328571
2359.78	0.384691
2361.19	0.213575
2362.59	0.221142
2364	0.277149
2365.41	-0.0552816
2366.81	0.227284
2368.22	0.0417051
2369.62	0.0510569
2371.03	0.174542
2372.44	0.234766
2373.84	0.183217
2375.24	0.27694
2376.65	0.289737
2378.05	0.397882
2379.46	0.198993
2380.86	0.319799
2382.26	0.070137
2383.67	0.42872
2385.07	0.498302
2386.47	0.408376
2387.88	0.3196
2389.28	0.264122
2390.68	0.066638
2392.08	0.157181
2393.48	0.0576763
2394.89	0.404408
2396.29	0.401826
2397.69	0.1774
2399.09	-0.0780964
2400.49	0.000608444
2401.89	-0.047473
2403.29	0.174476
2404.69	0.3007
2406.09	0.425961
2407.48	-0.0844994
2408.88	0.165969
2410.28	0.20981
2411.68	0.364744
2413.08	0.362036
2414.48	0.154836
2415.87	0.0758438
2417.27	-0.00182152
2418.67	-0.0944471
2420.06	0.00328922
2421.46	0.164305
2422.86	-0.166109
2424.25	0.247828
2425.65	0.0597754
2427.04	-0.0802526
2428.44	-0.298749
2429.83	-0.0565434
2431.23	0.154818
2432.62	0.303028
2434.02	-0.168576
2435.41	0.0415068
2436.81	-0.448886
2438.2	0.187287
2439.59	0.266047
2440.99	0.31209
2442.38	0.341688
2443.77	0.18057
2445.16	0.352489
2446.56	0.0643387
2447.95	0.251726
2449.34	0.042943
2450.73	0.10374
2452.12	-0.0248823
2453.51	0.00558853
2454.9	0.369132
2456.29	0.464378
2457.68	-0.0569525
2459.07	0.386436
2460.46	0.4654
2461.85	0.116608
2463.24	-0.0589161
2464.63	-0.0294895
2466.02	0.268093
2467.4	0.233847
2468.79	-0.0213089
2470.18	0.0389843
2471.57	-0.232244
2472.95	0.031765
2474.34	-0.13036
2475.73	-0.0254641
2477.12	0.0160427
2478.5	0.481456
2479.89	0.0989666
2481.27	0.203315
2482.66	0.009758
2484.04	0.379582
2485.43	0.247379
2486.81	0.11428
2488.2	0.198833
2489.58	0.204518
2490.97	-0.0545092
2492.35	0.589209
2493.73	0.00597382
2495.12	-0.140373
2496.5	-0.378218
2497.88	-0.30512
2499.27	0.139598
2500.65	0.289481
2502.03	0.376507
2503.41	0.431492
2504.79	0.238654
2506.17	0.0764217
2507.56	0.191341
2508.94	0.044816
2510.32	-0.0241642
2511.7	0.0917616
2513.08	0.0243292
2514.46	0.233576
2515.84	-0.000437737
2517.22	0.0878553
2518.59	-0.496083
2519.97	-0.10129
2521.35	-0.287519
2522.73	-0.138383
2524.11	0.17751
2525.49	-0.315495
2526.86	0.212291
2528.24	-0.005867
2529.62	-0.13136
2530.99	0.124829
2532.37	0.762424
2533.75	0.0491028
2535.12	-0.0557108
2536.5	0.143279
2537.88	-0.114154
2539.25	0.0528078
2540.63	-0.206241
2542	0.00504875
2543.38	-0.0414143
2544.75	0.170891
2546.12	0.141732
2547.5	0.250345
2548.87	0.0564289
2550.24	0.241863
2551.62	0.457213
2552.99	0.0190611
2554.36	-0.055871
2555.74	0.141444
2557.11	0.080286
2558.48	0.261668
2559.85	0.109752
2561.22	0.0797157
2562.59	0.186739
2563.96	0.157971
2565.34	0.00842285
2566.71	0.162221
2568.08	-0.441622
2569.45	-0.439259
2570.82	0.123928
2572.18	0.277977
2573.55	0.00771141
2574.92	0.116509
2576.29	0.270864
2577.66	0.182579
2579.03	0.245703
2580.4	0.36914
2581.77	0.113103
2583.13	0.266098
2584.5	0.373367
2585.87	-0.110579
2587.23	0.209015
2588.6	0.119568
2589.97	-0.121284
2591.33	0.0923862
2592.7	0.351007
2594.06	0.184566
2595.43	0.198912
2596.79	0.424122
2598.16	-0.0778217
2599.52	-0.0352564
2600.89	-0.158813
2602.25	0.216648
2603.62	-0.0868292
2604.98	0.0330153
2606.34	-0.028038
2607.71	0.136814
2609.07	0.0444651
2610.43	0.131763
2611.79	0.127323
2613.16	0.18189
2614.52	-0.0948591
2615.88	-0.0861654
2617.24	0.042696
2618.6	0.127015
2619.96	0.361622
2621.32	-0.0313425
2622.68	0.084815
2624.04	-0.276757
2625.4	-0.145463
2626.76	-0.0444021
2628.12	0.220116
2629.48	0.260612
2630.84	0.0776978
2632.2	0.103104
2633.56	-0.510262
2634.92	0.109211
2636.28	0.193811
2637.63	0.0263844
2638.99	0.0517797
2640.35	0.0181427
2641.71	-0.207341
2643.06	-0.107206
2644.42	0.0520239
2645.77	0.0191898
2647.13	-0.353031
2648.49	-0.239253
2649.84	0.4916
2651.2	0.191322
2652.55	-0.167361
2653.91	0.296491
2655.26	-0.0898476
2656.62	0.00888062
2657.97	0.269636
2659.33	0.267704
2660.68	0.0176373
2662.03	0.01612
2663.39	-0.453351
2664.74	0.0403414
2666.09	-0.123705
2667.44	0.571872
2668.8	0.538213
2670.15	0.199385
2671.5	0.0506392
2672.85	-0.0536575
2674.2	-0.0555401
2675.55	0.131858
2676.91	0.406733
2678.26	0.0149574
2679.61	0.146262
2680.96	0.148116
2682.31	0.310683
2683.66	-0.0910177
2685	0.204294
2686.35	0.181042
2687.7	0.389826
2689.05	0.742682
2690.4	0.353439
2691.75	0.470431
2693.1	0.469742
2694.44	-0.0104113
2695.79	0.0605221
2697.14	0.117551
2698.49	-0.0123959
2699.83	0.438568
2701.18	-0.00648022
2702.52	-0.0591164
2703.87	0.121095
2705.22	0.142505
2706.56	0.265541
2707.91	0.53355
2709.25	0.394904
2710.6	0.37197
2711.94	0.116341
2713.29	0.0348005
2714.63	0.520069
2715.97	0.482137
2717.32	0.604033
2718.66	0.231121
2720.01	0.323317
2721.35	0.124035
2722.69	0.259008
2724.03	0.0442076
2725.38	-0.0691156
2726.72	0.574076
2728.06	0.314548
2729.4	0.695146
2730.74	0.682663
2732.08	0.481048
2733.42	0.265044
2734.76	0.558378
2736.1	0.299199
2737.44	0.607414
2738.78	0.377492
2740.12	-0.0416832
2741.46	0.512966
2742.8	0.616133
2744.14	0.544147
2745.48	0.38443
2746.82	0.413203
2748.16	-0.10978
2749.49	0.412385
2750.83	0.194692
2752.17	0.28189
2753.51	0.499711
2754.84	0.123578
2756.18	0.0375042
2757.52	0.0964556
2758.85	0.170127
2760.19	0.490213
2761.53	0.145045
2762.86	0.350286
2764.2	0.338798
2765.53	0.660069
2766.87	0.431077
2768.2	0.490502
2769.54	0.259412
2770.87	0.605128
2772.2	0.40028
2773.54	0.252437
2774.87	0.637728
2776.2	0.53262
2777.54	0.0539246
2778.87	0.424972
2780.2	0.379292
2781.53	-0.0249901
2782.87	0.274549
2784.2	0.272486
2785.53	0.49973
2786.86	0.0680647
2788.19	0.453355
2789.52	0.409833
2790.85	0.238554
2792.18	0.497115
2793.51	0.370055
2794.84	0.314554
2796.17	0.430207
2797.5	0.245297
2798.83	-0.282688
2800.16	0.602271
2801.49	-0.0116491
2802.82	0.358637
2804.15	0.272281
2805.47	0.328011
2806.8	0.0699534
2808.13	0.707669
2809.46	0.562386
2810.78	0.431587
2812.11	0.216475
2813.44	0.726101
2814.76	0.386129
2816.09	0.0619841
2817.42	0.518551
2818.74	0.352033
2820.07	-0.0270863
2821.39	0.514622
2822.72	0.573747
2824.04	0.788074
2825.37	0.548706
2826.69	0.536088
2828.02	0.637274
2829.34	0.441726
2830.66	0.812915
2831.99	0.575604
2833.31	0.593032
2834.63	0.666754
2835.96	0.683357
2837.28	0.671122
2838.6	0.743337
2839.92	0.688046
2841.24	0.533932
2842.57	1.15773
2843.89	1.32973
2845.21	1.46005
2846.53	1.85952
2847.85	2.11805
2849.17	1.95261
2850.49	1.75857
2851.81	1.81842
2853.13	2.59848
2854.45	2.13445
2855.77	2.2355
2857.09	1.99748
2858.41	2.83302
2859.72	2.28432
2861.04	2.56867
2862.36	2.51375
2863.68	2.92422
2865	2.88267
2866.31	3.0104
2867.63	3.27936
2868.95	3.59099
2870.26	4.12854
2871.58	3.63711
2872.9	3.61058
2874.21	3.69595
2875.53	4.06176
2876.84	4.22894
2878.16	4.22617
2879.47	4.13872
2880.79	3.98144
2882.1	4.51365
2883.42	4.02142
2884.73	4.00793
2886.05	4.21968
2887.36	4.47351
2888.67	4.15139
2889.99	4.06702
2891.3	4.36034
2892.61	4.27431
2893.92	4.49636
2895.24	4.29856
2896.55	4.6757
2897.86	4.38211
2899.17	4.60743
2900.48	4.86154
2901.79	4.73841
2903.11	4.88127
2904.42	5.12217
2905.73	5.06962
2907.04	5.05965
2908.35	5.20446
2909.66	5.49014
2910.97	5.46868
2912.27	5.6151
2913.58	6.15266
2914.89	5.91862
2916.2	5.89256
2917.51	6.48049
2918.82	6.56325
2920.13	7.14925
2921.43	6.75697
2922.74	6.7857
2924.05	7.09559
2925.35	7.40678
2926.66	7.52298
2927.97	7.30367
2929.27	7.37743
2930.58	7.35261
2931.89	7.53689
2933.19	7.91649
2934.5	7.63906
2935.8	8.4379
2937.11	7.6856
2938.41	7.50651
2939.72	7.35567
2941.02	6.92594
2942.32	6.59496
2943.63	6.97806
2944.93	6.52407
2946.24	6.12701
2947.54	6.44382
2948.84	5.66876
2950.14	5.80192
2951.45	6.10112
2952.75	5.67
2954.05	5.58736
2955.35	5.42033
2956.65	5.81416
2957.95	5.23046
2959.26	5.41957
2960.56	5.37372
2961.86	4.89544
2963.16	5.37121
2964.46	5.0186
2965.76	5.53486
2967.06	4.91131
2968.36	4.7497
2969.66	4.71368
2970.96	4.71965
2972.25	4.27569
2973.55	4.63393
2974.85	4.09138
2976.15	4.39256
2977.45	4.10094
2978.74	4.04673
2980.04	3.97649
2981.34	3.83442
2982.64	3.80433
2983.93	3.25439
2985.23	3.67571
2986.52	3.42391
2987.82	3.24393
2989.12	3.03682
2990.41	3.04067
2991.71	2.87524
2993	3.25671
2994.3	2.68113
2995.59	2.06244
2996.89	2.31387
2998.18	2.59284
2999.48	2.47898
3000.77	2.1554
3002.06	2.22502
3003.36	1.62236
3004.65	1.87457
3005.94	1.95819
3007.23	1.62106
3008.53	1.22731
3009.82	1.69992
3011.11	1.45844
3012.4	1.27263
3013.69	1.21258
3014.99	1.09718
3016.28	1.02434
3017.57	1.00792
3018.86	0.866686
3020.15	1.07324
3021.44	0.736947
3022.73	1.12236
3024.02	0.86773
3025.31	0.889974
3026.6	1.17499
3027.89	0.726525
3029.18	0.79137
3030.46	0.912766
3031.75	0.800632
3033.04	0.634292
3034.33	0.744251
3035.62	0.853456
3036.9	0.905955
3038.19	0.983994
3039.48	0.743322
3040.76	0.80389
3042.05	0.808351
3043.34	1.30603
3044.62	0.927175
3045.91	0.906274
3047.19	0.983146
3048.48	1.0622
3049.77	0.488147
3051.05	1.04839
3052.34	1.00882
3053.62	0.819046
3054.9	1.17419
3056.19	1.21425
3057.47	1.26662
3058.76	1.56318
3060.04	1.05564
3061.32	1.22934
3062.61	1.39015
3063.89	1.21226
3065.17	1.04954
3066.45	0.833775
3067.74	0.945158
3069.02	1.04322
3070.3	0.637642
3071.58	0.80223
3072.86	0.95179
3074.14	0.89591
3075.42	0.526461
3076.7	0.7001
3077.99	0.358062
3079.26	0.532804
3080.54	0.328967
3081.82	0.330009
3083.1	0.535604
3084.38	0.402559
3085.66	0.66293
3086.94	0.447687
3088.22	0.272261
3089.5	0.258876
3090.78	0.285591
3092.05	0.420521
3093.33	0.338359
3094.61	0.364839
3095.89	0.0931168
3097.16	0.119628
3098.44	0.335631
3099.72	0.226021
3100.99	0.183931
3102.27	0.195912
3103.54	0.248593
3104.82	0.13915
3106.1	0.246819
3107.37	0.395795
3108.65	0.464435
3109.92	0.209125
3111.2	-0.0319824
3112.47	0.0794735
3113.74	0.448716
3115.02	0.153768
3116.29	0.169843
3117.56	0.266252
3118.84	0.212186
3120.11	0.0347633
3121.38	0.493496
3122.66	0.20574
3123.93	-0.244725
3125.2	0.144625
3126.47	-0.18343
3127.74	0.179068
3129.01	-0.0264201
3130.29	-0.150544
3131.56	0.00913763
3132.83	0.127799
3134.1	0.178229
3135.37	0.254841
3136.64	0.0202484
3137.91	-0.0395327
3139.18	0.0348697
3140.45	0.176016
3141.72	-0.261507
3142.99	0.24226
3144.26	-0.113782
3145.52	0.0140033
3146.79	-0.139493
3148.06	-0.0244751
3149.33	0.0639443
