200.533	-0.00645924
202.348	0.0186977
204.162	0.0445881
205.976	0.216942
207.792	0.486455
209.605	-0.265483
211.418	0.512393
213.23	-0.26523
215.044	0.00017643
216.856	0.313053
218.667	0.455853
220.478	0.52621
222.289	-0.0559912
224.102	0.0157471
225.912	0.184334
227.721	0.376834
229.531	-0.155656
231.34	-0.253807
233.148	-0.27986
234.956	0.104157
236.766	0.078989
238.574	0.0311813
240.381	0.105673
242.188	-0.613953
243.994	0.500051
245.801	-0.0504866
247.606	-0.0716572
249.412	-0.191595
251.217	0.362028
253.024	0.189084
254.828	0.135434
256.632	0.0814285
258.436	0.485881
260.239	-0.144685
262.042	-0.0510235
263.845	-0.0767059
265.647	0.0910254
267.449	0.0179377
269.25	0.860474
271.052	0.352391
272.852	-0.1086
274.653	0.0802011
276.453	0.195292
278.253	0.0678244
280.052	0.0833464
281.852	0.169405
283.65	0.301906
285.449	-0.143609
287.247	-0.0608997
289.044	0.381199
290.842	-0.111226
292.639	0.355459
294.436	-0.0145645
296.232	-0.0484571
298.028	0.109575
299.821	0.124415
301.617	0.115139
303.412	0.51101
305.206	0.428204
307	0.130034
308.794	0.594743
310.588	0.463721
312.381	0.524221
314.172	0.824033
315.964	0.672834
317.756	0.475353
319.548	0.398021
321.34	0.964995
323.131	0.65075
324.921	0.312552
326.71	0.618618
328.5	-0.0786686
330.29	0.131083
332.079	0.124824
333.868	0.500016
335.654	-0.0835671
337.443	0.168577
339.231	-0.202985
341.018	-0.192869
342.804	0.175143
344.591	0.399403
346.377	0.0506015
348.163	0.132284
349.947	-0.0483651
351.733	0.0813017
353.518	0.0911188
355.303	0.410176
357.085	0.0603018
358.869	0.114849
360.653	0.597056
362.435	0.00700378
364.218	-0.0596566
366.001	-0.150538
367.781	-0.0757446
369.563	0.0219383
371.345	-0.236538
373.124	0.285717
374.905	0.310217
376.686	0.193057
378.464	0.736725
380.244	0.431979
382.022	0.0109711
383.801	0.367687
385.58	0.748431
387.357	0.119361
389.135	0.196262
390.911	-0.0784764
392.689	-0.117738
394.466	0.524445
396.241	0.485827
398.018	-0.0224638
399.792	0.0796847
401.568	0.228466
403.341	0.0244107
405.117	0.313005
406.889	0.530487
408.664	-0.00388098
410.436	-0.209684
412.21	-0.274589
413.981	-0.268812
415.755	-0.168704
417.525	0.330839
419.298	0.0330439
421.068	0.791503
422.84	0.681421
424.609	0.242057
426.38	-0.198056
428.149	0.0889564
429.919	0.258195
431.688	0.544718
433.455	-0.271618
435.225	-0.101982
436.992	-0.214032
438.76	0.447867
440.527	-0.135156
442.293	0.476916
444.06	-0.179163
445.826	-0.086123
447.593	0.310143
449.357	-0.37025
451.122	0.328995
452.888	0.163597
454.651	0.068594
456.415	0.0669336
458.18	0.367889
459.942	0.365927
461.705	0.0389524
463.469	0.434001
465.23	0.412358
466.991	0.0443568
468.752	0.607927
470.515	0.266432
472.275	0.0413175
474.035	0.281033
475.797	0.0305076
477.556	-0.0120811
479.315	0.875767
481.073	0.76117
482.834	0.227517
484.592	0.277042
486.349	0.37463
488.106	-0.108819
489.863	-0.124899
491.622	-0.280325
493.378	0.475676
495.134	0.531589
496.889	-0.208398
498.645	0.409037
500.401	0.182967
502.156	-0.208291
503.91	0.526675
505.664	0.439121
507.417	0.515019
509.171	0.025198
510.923	0.23982
512.678	0.0297594
514.43	0.00684786
516.182	0.641633
517.933	0.240403
519.684	-0.161274
521.435	0.658639
523.186	0.0683708
524.936	0.440865
526.686	0.343787
528.435	0.317166
530.184	0.126449
531.933	0.169838
533.682	0.704104
535.43	0.464874
537.18	0.785791
538.927	0.24123
540.674	0.419836
542.421	0.271352
544.167	-0.27252
545.913	0.137526
547.659	-0.172694
549.403	0.30613
551.148	-0.0263863
552.893	0.28959
554.637	-0.0650086
556.381	-0.280185
558.125	0.404645
559.868	0.30528
561.611	0.252558
563.354	-0.512661
565.097	-0.0581741
566.839	-0.0172849
568.581	0.827652
570.322	0.0433674
572.063	0.338891
573.802	0.0850334
575.542	0.635422
577.283	-0.166553
579.022	0.684744
580.762	0.871343
582.501	0.0930591
584.24	-0.364518
585.976	-0.0412221
587.714	0.419392
589.452	0.166036
591.19	-0.364132
592.927	0.140676
594.663	0.277251
596.398	0.206801
598.134	-0.0247173
599.87	0.272647
601.605	0.316301
603.338	0.289992
605.073	0.078692
606.808	0.0734286
608.542	0.113519
610.274	0.360035
612.007	0.0332131
613.74	-0.109285
615.473	-0.0449162
617.204	-0.00338268
618.936	-0.420285
620.668	-0.311092
622.397	-0.225747
624.128	0.43036
625.859	-0.0565715
627.588	0.1428
629.318	0.160879
631.048	-0.0931139
632.775	0.224852
634.505	-0.0269217
636.233	0.45144
637.96	0.449163
639.688	0.695838
641.416	0.825922
643.142	0.201882
644.869	0.534249
646.594	-0.0208154
648.32	-0.073544
650.045	0.353212
651.771	-0.126174
653.496	0.169869
655.219	0.081964
656.944	-0.0499897
658.667	0.34273
660.391	0.0741954
662.113	0.466312
663.837	0.811559
665.558	0.743716
667.281	0.194118
669.002	0.398545
670.724	0.718038
672.444	0.238246
674.166	0.515478
675.885	0.130012
677.606	-0.117617
679.325	0.139639
681.045	0.626575
682.763	-0.0144129
684.483	0.585335
686.2	0.355093
687.917	0.399954
689.636	0.213682
691.352	0.395422
693.07	0.392416
694.786	-0.140882
696.501	0.13125
698.219	0.793716
699.933	0.55733
701.65	0.458279
703.364	0.680404
705.078	0.60313
706.793	1.30583
708.506	1.08988
710.219	0.346996
711.934	0.314745
713.646	0.762649
715.358	0.843981
717.071	0.947953
718.782	0.823726
720.493	0.585903
722.204	0.781258
723.916	0.908054
725.626	1.08002
727.336	1.04704
729.045	0.809568
730.756	1.47896
732.464	0.855883
734.173	0.505394
735.881	0.675487
737.59	0.913252
739.297	1.35415
741.004	1.02872
742.711	1.17775
744.417	0.967477
746.125	1.05104
747.831	1.27063
749.537	0.883883
751.242	0.903062
752.946	0.878253
754.651	0.96698
756.357	1.10191
758.061	0.855381
759.764	0.542078
761.467	1.22122
763.17	1.26998
764.872	1.25084
766.575	1.47932
768.276	1.61614
769.978	1.05033
771.679	1.22903
773.382	1.38404
775.083	1.24474
776.783	1.44505
778.483	1.51074
780.182	1.78121
781.882	1.7586
783.581	1.66819
785.279	1.59942
786.978	1.82301
788.676	1.61397
790.373	1.04059
792.071	1.41517
793.768	1.33629
795.464	1.30249
797.161	1.94558
798.857	0.854944
800.552	1.63517
802.248	1.33585
803.941	1.53205
805.636	1.48066
807.33	1.94545
809.024	1.44317
810.718	1.59138
812.412	1.51441
814.105	1.59395
815.798	1.2926
817.49	1.72983
819.183	1.74177
820.873	1.55287
822.564	1.52075
824.256	2.09131
825.947	2.01612
827.637	1.78688
829.328	1.58228
831.016	1.60281
832.705	1.44735
834.395	1.38254
836.084	1.07305
837.772	1.67808
839.459	2.01485
841.147	1.16672
842.835	1.18846
844.522	1.88023
846.209	1.43294
847.894	1.61286
849.581	1.50405
851.267	1.26267
852.953	1.24646
854.637	1.3431
856.322	1.10284
858.007	1.58074
859.689	1.04551
861.374	0.80087
863.058	1.09544
864.739	1.16393
866.423	1.20921
868.106	1.25403
869.787	1.05041
871.469	1.5232
873.151	1.70269
874.831	1.22781
876.512	1.49751
878.193	1.22561
879.872	1.02126
881.553	0.929461
883.231	0.995123
884.911	0.969646
886.591	1.1688
888.268	1.18614
889.947	0.841422
891.623	0.879099
893.302	1.23098
894.978	1.2439
896.656	1.25593
898.331	0.84051
900.008	1.18789
901.683	1.2426
903.359	0.938729
905.033	0.501407
906.709	0.266213
908.383	1.21356
910.058	0.756518
911.731	1.14644
913.405	0.624934
915.078	1.41464
916.752	1.0716
918.423	1.17239
920.096	0.453866
921.768	0.931591
923.438	0.945216
925.111	1.04841
926.781	1.08667
928.452	0.640609
930.122	0.81356
931.791	0.633932
933.462	1.05016
935.13	1.00321
936.799	0.824272
938.468	1.0871
940.136	0.99798
941.803	0.865637
943.472	0.755834
945.139	0.844481
946.805	0.645309
948.473	1.06281
950.139	1.01529
951.804	0.481516
953.471	0.587731
955.136	0.298155
956.801	0.385459
958.465	0.695713
960.131	0.897954
961.794	1.23414
963.458	0.62013
965.12	0.468531
966.785	0.403343
968.447	0.77863
970.109	0.665617
971.771	0.30872
973.432	0.903233
975.095	0.724761
976.756	0.879384
978.417	0.194552
980.077	0.538776
981.737	0.882875
983.396	0.772233
985.057	1.43489
986.716	1.01119
988.375	1.38281
990.033	1.08972
991.691	0.774333
993.349	0.547536
995.006	0.806688
996.663	0.646467
998.32	0.750979
999.976	0.833148
1001.63	1.11308
1003.29	1.70039
1004.95	1.51694
1006.6	1.02602
1008.26	0.513932
1009.91	0.266127
1011.56	0.676834
1013.22	0.123075
1014.87	0.88442
1016.53	0.178529
1018.18	0.195777
1019.83	1.24149
1021.48	0.800557
1023.14	0.142141
1024.79	0.468099
1026.44	0.61957
1028.09	0.377712
1029.74	0.659741
1031.39	0.263685
1033.04	0.718121
1034.69	1.17083
1036.34	0.291975
1037.99	0.568413
1039.64	0.278431
1041.29	0.685391
1042.94	0.962373
1044.58	-0.0197153
1046.23	0.455537
1047.88	0.866823
1049.52	0.606073
1051.17	0.346216
1052.82	0.673425
1054.46	0.32741
1056.11	1.0245
1057.75	0.87382
1059.4	1.11406
1061.04	0.0926704
1062.69	0.636226
1064.33	0.0484133
1065.98	0.568699
1067.62	0.957529
1069.26	0.628413
1070.9	0.0384884
1072.55	0.447471
1074.19	0.704593
1075.83	0.550203
1077.47	0.418571
1079.11	0.309564
1080.76	0.439632
1082.4	0.613032
1084.04	0.41713
1085.68	0.415175
1087.32	0.411716
1088.95	0.0819378
1090.59	0.184103
1092.23	0.652717
1093.87	0.450639
1095.51	0.400113
1097.15	0.630523
1098.78	0.904673
1100.42	0.469452
1102.06	0.789217
1103.69	0.357196
1105.33	0.722144
1106.97	0.549734
1108.6	0.635167
1110.24	0.80572
1111.87	0.0292935
1113.51	0.369415
1115.14	0.171554
1116.77	0.488383
1118.41	0.0331364
1120.04	-0.0353966
1121.67	0.389319
1123.31	0.0225196
1124.94	0.405515
1126.57	-0.0452466
1128.2	1.10857
1129.83	0.338247
1131.47	0.316792
1133.1	0.0390182
1134.72	0.723079
1136.36	0.444716
1137.98	0.422075
1139.62	0.548057
1141.24	0.481034
1142.87	-0.0770755
1144.5	0.367876
1146.13	-0.125068
1147.76	-0.254675
1149.38	-0.170564
1151.01	0.275924
1152.64	0.275002
1154.27	-0.130672
1155.89	-0.0681801
1157.52	0.334596
1159.14	-0.0708261
1160.77	0.353882
1162.39	0.332774
1164.02	0.0147419
1165.64	-0.175373
1167.27	0.484785
1168.89	0.251139
1170.51	-0.0899334
1172.14	0.268918
1173.76	0.116549
1175.38	-0.0152788
1177	-0.104867
1178.63	0.568372
1180.25	0.119324
1181.87	0.242662
1183.49	0.15492
1185.11	0.764527
1186.73	0.08461
1188.35	0.185127
1189.97	0.705544
1191.59	0.423392
1193.21	0.813568
1194.83	0.362298
1196.45	0.101001
1198.07	0.448273
1199.68	0.105904
1201.3	0.413636
1202.92	0.263533
1204.53	0.345062
1206.15	0.532426
1207.77	0.929313
1209.38	0.158156
1211	0.471118
1212.62	0.428192
1214.23	0.800373
1215.84	0.795542
1217.46	0.373306
1219.07	0.57455
1220.69	0.567724
1222.3	0.478498
1223.91	0.26606
1225.53	1.11098
1227.14	0.900718
1228.75	0.609032
1230.36	0.814747
1231.97	1.12462
1233.59	0.629303
1235.2	0.920365
1236.81	1.00569
1238.42	1.07116
1240.03	1.44736
1241.64	0.913793
1243.25	0.834847
1244.85	1.33464
1246.46	0.923214
1248.07	1.00761
1249.68	1.15348
1251.29	1.15426
1252.9	0.94839
1254.5	0.80517
1256.11	0.952362
1257.72	0.500599
1259.32	1.31178
1260.93	1.02704
1262.54	1.50866
1264.14	1.45203
1265.75	1.2085
1267.35	0.715506
1268.96	0.82281
1270.56	1.69652
1272.16	1.15949
1273.77	0.849761
1275.37	1.30629
1276.97	1.76185
1278.57	1.32571
1280.18	0.806599
1281.78	1.67436
1283.38	1.11404
1284.98	1.34043
1286.58	1.29863
1288.18	1.17502
1289.78	1.30016
1291.38	1.343
1292.99	1.22045
1294.58	1.22129
1296.18	1.44826
1297.78	1.36411
1299.38	0.804228
1300.98	1.29532
1302.58	1.00194
1304.17	1.51091
1305.77	1.01098
1307.37	0.819724
1308.97	1.34664
1310.56	2.09785
1312.16	1.0464
1313.76	0.774771
1315.35	1.01522
1316.95	1.13349
1318.54	0.966384
1320.14	1.61484
1321.73	1.12087
1323.32	1.50156
1324.92	1.49385
1326.51	1.11966
1328.1	1.41501
1329.7	1.06218
1331.29	1.80351
1332.88	1.43394
1334.47	0.703378
1336.07	1.38743
1337.66	0.659398
1339.25	1.04024
1340.84	0.855325
1342.43	1.4941
1344.02	1.1652
1345.61	0.936614
1347.2	0.568384
1348.79	0.963348
1350.37	1.23939
1351.96	1.11703
1353.55	1.31627
1355.14	0.916783
1356.73	1.31706
1358.31	1.31723
1359.9	0.75754
1361.49	0.876124
1363.07	0.814431
1364.66	1.25094
1366.25	0.690961
1367.83	1.0084
1369.42	0.868661
1371	1.22762
1372.59	0.950791
1374.17	0.416193
1375.75	1.13566
1377.34	0.860288
1378.92	0.982489
1380.5	1.0243
1382.09	0.627451
1383.67	0.548036
1385.25	0.6071
1386.83	0.28832
1388.42	0.724543
1390	0.684511
1391.58	0.605495
1393.16	0.705647
1394.74	0.825855
1396.32	0.311347
1397.9	1.12471
1399.48	1.02524
1401.06	0.667661
1402.64	0.527763
1404.21	0.724322
1405.79	0.782662
1407.37	0.683485
1408.95	0.486229
1410.53	0.348719
1412.1	0.428456
1413.68	0.547184
1415.26	0.803262
1416.83	0.624623
1418.41	0.505034
1419.98	0.385836
1421.56	0.523506
1423.13	0.603179
1424.71	0.6053
1426.28	0.805157
1427.86	0.72985
1429.43	0.595273
1431	0.991438
1432.58	0.855318
1434.15	0.698874
1435.72	0.915872
1437.29	1.07392
1438.87	1.19316
1440.44	0.880753
1442.01	1.76794
1443.58	1.59442
1445.15	1.36223
1446.72	1.54293
1448.29	1.60584
1449.86	1.88526
1451.43	1.92919
1453	1.75726
1454.57	1.50687
1456.14	1.39404
1457.71	1.10353
1459.27	1.87473
1460.84	1.22759
1462.41	1.70061
1463.98	1.11007
1465.54	1.71818
1467.11	0.773546
1468.67	1.40084
1470.24	0.811555
1471.81	1.04751
1473.37	0.578087
1474.94	0.619263
1476.5	0.0725231
1478.07	0.95712
1479.63	0.430106
1481.19	0.726336
1482.76	0.591295
1484.32	0.593347
1485.88	0.928155
1487.45	0.498406
1489.01	0.557384
1490.57	0.106232
1492.13	0.670776
1493.69	0.470998
1495.26	0.250839
1496.82	1.10203
1498.38	0.199673
1499.94	-0.447365
1501.5	0.616077
1503.06	0.0103941
1504.62	0.394574
1506.17	0.274959
1507.73	0.425837
1509.29	0.20862
1510.85	0.0875354
1512.41	0.139582
1513.97	-0.0204582
1515.52	0.339002
1517.08	0.122103
1518.64	0.558214
1520.19	0.323413
1521.75	0.663268
1523.31	0.46697
1524.86	0.327804
1526.42	0.703014
1527.97	0.962304
1529.52	0.497966
1531.08	0.528563
1532.63	0.161322
1534.19	0.439495
1535.74	0.490802
1537.29	0.504907
1538.85	0.519489
1540.4	0.55318
1541.95	0.549194
1543.5	0.620423
1545.06	0.503358
1546.61	0.517836
1548.16	0.457124
1549.71	1.29616
1551.26	1.16001
1552.81	0.837498
1554.36	1.33864
1555.91	0.850319
1557.46	0.774619
1559.01	0.924376
1560.56	0.777032
1562.11	1.24653
1563.65	0.765462
1565.2	0.900454
1566.75	1.2035
1568.29	0.629236
1569.84	1.28651
1571.39	0.59956
1572.94	1.4804
1574.48	0.998439
1576.03	1.16986
1577.57	1.19212
1579.12	1.68145
1580.66	1.57389
1582.21	1.37356
1583.75	0.557287
1585.3	1.19874
1586.84	1.35496
1588.38	1.17473
1589.93	1.42456
1591.47	1.01906
1593.01	1.2683
1594.55	1.14287
1596.1	1.44834
1597.64	1.37949
1599.18	1.47987
1600.72	1.35579
1602.26	1.45717
1603.8	1.35206
1605.34	0.85177
1606.88	1.19576
1608.42	0.786566
1609.96	1.80401
1611.5	1.31608
1613.04	1.07113
1614.58	1.40727
1616.12	1.12375
1617.65	1.66569
1619.19	1.14014
1620.73	1.38404
1622.27	1.01099
1623.8	1.3688
1625.34	1.27727
1626.87	1.35359
1628.41	1.14822
1629.95	1.22245
1631.48	1.38924
1633.02	1.57421
1634.55	0.993897
1636.09	0.806627
1637.62	1.57133
1639.15	1.72073
1640.69	1.51594
1642.22	1.36668
1643.76	1.51461
1645.29	1.69862
1646.82	1.6957
1648.35	1.58107
1649.88	1.54121
1651.42	1.61353
1652.95	1.87225
1654.48	2.29853
1656.01	2.05782
1657.54	2.11363
1659.07	1.98352
1660.6	1.83393
1662.13	1.7943
1663.66	1.47655
1665.19	2.02692
1666.72	1.56172
1668.24	1.5407
1669.77	1.37344
1671.3	1.576
1672.83	1.72404
1674.35	1.28308
1675.88	1.32081
1677.41	0.824174
1678.93	1.39406
1680.46	1.39261
1681.99	1.61104
1683.51	0.929225
1685.04	1.31263
1686.56	1.64083
1688.09	1.25421
1689.61	1.14311
1691.13	1.25201
1692.66	0.921664
1694.18	0.920828
1695.71	0.846734
1697.23	0.279198
1698.75	0.661613
1700.27	0.477517
1701.8	0.639779
1703.32	0.436914
1704.84	0.0882807
1706.36	0.54044
1707.88	0.646239
1709.4	0.497514
1710.92	0.621317
1712.44	0.491195
1713.96	0.57881
1715.48	0.4491
1717	0.409984
1718.52	0.51541
1720.04	0.385865
1721.56	0.27471
1723.07	0.00188637
1724.59	0.342689
1726.11	0.107823
1727.63	0.324091
1729.14	0.414945
1730.66	0.0380058
1732.18	0.250978
1733.69	-0.227438
1735.21	0.0267906
1736.72	0.492332
1738.24	0.277165
1739.75	0.0645194
1741.27	0.495424
1742.78	0.305599
1744.3	0.22183
1745.81	0.242156
1747.32	0.566743
1748.84	0.243806
1750.35	0.405756
1751.86	0.242213
1753.37	0.380654
1754.89	0.317551
1756.4	0.522045
1757.91	0.310509
1759.42	0.070703
1760.93	0.182466
1762.44	0.130591
1763.95	0.282142
1765.46	0.55197
1766.97	0.301741
1768.48	0.165857
1769.99	0.344954
1771.5	0.247665
1773.01	0.138636
1774.52	0.076859
1776.03	-0.209893
1777.53	0.27274
1779.04	-0.0212979
1780.55	0.140905
1782.06	0.234365
1783.56	0.00518656
1785.07	-0.0326715
1786.57	0.0209374
1788.08	0.351518
1789.59	0.326129
1791.09	0.107724
1792.6	0.148333
1794.1	0.283213
1795.6	0.104631
1797.11	-0.0146713
1798.61	0.21013
1800.12	-0.0631971
1801.62	0.0864673
1803.12	0.00898218
1804.63	-0.0711422
1806.13	0.0597529
1807.63	-0.290385
1809.13	-0.09834
1810.63	0.327167
1812.14	-0.150475
1813.64	0.102099
1815.14	0.213648
1816.64	0.0525193
1818.14	0.260923
1819.64	0.257007
1821.14	0.139309
1822.64	0.267987
1824.14	0.296296
1825.63	0.265277
1827.13	0.363348
1828.63	0.422437
1830.13	0.238672
1831.63	0.424823
1833.12	0.416867
1834.62	0.19176
1836.12	0.0454383
1837.62	0.0467081
1839.11	0.124428
1840.61	0.208745
1842.1	0.0754395
1843.6	0.124663
1845.09	0.112
1846.59	0.215302
1848.08	0.292445
1849.58	0.253626
1851.07	-0.271731
1852.57	0.0589404
1854.06	-0.139001
1855.55	-0.0999174
1857.04	-0.124799
1858.54	-0.0949264
1860.03	0.0253892
1861.52	0.0921531
1863.01	0.192339
1864.5	-0.275022
1866	0.157563
1867.49	0.184268
1868.98	0.216167
1870.47	0.586722
1871.96	0.0442457
1873.45	0.119627
1874.94	-0.33594
1876.43	0.0650277
1877.92	0.253647
1879.41	0.393277
1880.89	-0.0428658
1882.38	-0.253762
1882.48	-0.268837
1883.97	0.0450368
1885.47	0.0618949
1886.96	-0.0612226
1888.46	-0.323838
1889.95	0.0228796
1891.44	0.456889
1892.94	-0.0644879
1894.43	-0.0107245
1895.92	-0.00804234
1897.41	-0.00476646
1898.9	0.259379
1900.4	0.122761
1901.89	-0.0150056
1903.38	0.315599
1904.87	0.453685
1906.36	0.504159
1907.85	-0.244276
1909.34	-0.227858
1910.83	0.292354
1912.32	-0.0544453
1913.81	0.188987
1915.29	0.189633
1916.78	-0.035336
1918.27	0.0167451
1919.76	0.0684714
1921.25	0.43186
1922.74	0.119987
1924.22	0.0512433
1925.71	0.537268
1927.2	0.158471
1928.68	0.299506
1930.17	0.440563
1931.65	0.494476
1933.14	0.201009
1934.63	0.217981
1936.11	0.45865
1937.59	0.12756
1939.08	0.0211749
1940.56	0.450404
1942.05	0.431026
1943.53	0.395188
1945.01	0.273795
1946.5	0.359626
1947.98	0.0316396
1949.46	-0.0899024
1950.94	0.149559
1952.43	0.0611491
1953.91	-0.285496
1955.39	0.175897
1956.87	0.568244
1958.35	0.0853086
1959.83	0.0665665
1961.31	-0.174692
1962.79	-0.0899477
1964.27	0.165931
1965.75	0.1986
1967.23	0.401897
1968.71	0.382101
1970.19	-0.0312514
1971.67	0.136533
1973.14	0.355222
1974.62	0.061974
1976.1	0.348759
1977.58	0.17539
1979.05	0.308701
1980.53	0.101606
1982.01	0.251632
1983.48	0.0784931
1984.96	0.109048
1986.43	-0.0132732
1987.91	0.237413
1989.38	0.437117
1990.86	0.180092
1992.33	0.211567
1993.81	0.378962
1995.28	0.0229301
1996.76	0.224948
1998.23	0.393036
1999.7	0.442518
2001.18	0.0527606
2002.65	0.152144
2004.12	0.36932
2005.59	0.502259
2007.06	0.281898
2008.54	0.23074
2010.01	0.533763
2011.48	0.214248
2012.95	0.281973
2014.42	0.383036
2015.89	0.113362
2017.36	0.448671
2018.83	0.346014
2020.3	0.226241
2021.77	0.39196
2023.24	0.356308
2024.71	-0.299573
2026.17	0.488313
2027.64	0.304154
2029.11	0.339117
2030.58	0.0562978
2032.04	0.025722
2033.51	0.196912
2034.98	0.485765
2036.45	0.0521936
2037.91	0.441344
2039.38	0.258956
2040.84	0.715213
2042.31	0.348051
2043.77	0.536248
2045.24	0.641111
2046.7	0.595118
2048.17	0.296631
2049.63	0.402089
2051.1	0.422615
2052.56	0.711863
2054.02	0.595053
2055.48	0.476939
2056.95	0.374711
2058.41	0.305656
2059.87	0.607081
2061.33	0.504449
2062.8	0.335135
2064.26	-0.0353518
2065.72	0.486845
2067.18	0.285979
2068.64	0.758743
2070.1	0.609026
2071.56	0.526652
2073.02	0.0232096
2074.48	0.664525
2075.94	0.54788
2077.4	0.582509
2078.86	0.532636
2080.31	0.330876
2081.77	0.414975
2083.23	0.734212
2084.69	0.43009
2086.14	0.344307
2087.6	0.644862
2089.06	0.037291
2090.52	0.40442
2091.97	0.787897
2093.43	0.466145
2094.88	0.2284
2096.34	0.895633
2097.79	0.322076
2099.25	0.317909
2100.7	0.581069
2102.16	0.576594
2103.61	0.940084
2105.07	0.653204
2106.52	0.417668
2107.97	0.483265
2109.43	1.13271
2110.88	0.914552
2112.33	0.0790157
2113.78	0.97507
2115.24	0.570717
2116.69	0.881221
2118.14	0.709684
2119.59	0.871341
2121.04	0.801979
2122.49	0.883386
2123.94	0.783458
2125.39	1.18149
2126.84	1.26425
2128.29	1.03124
2129.74	1.01271
2131.19	1.22505
2132.64	1.48618
2134.09	1.33335
2135.54	1.2309
2136.98	0.964376
2138.43	1.27778
2139.88	1.21252
2141.33	1.23117
2142.77	1.20116
2144.22	1.27089
2145.67	1.30769
2147.11	1.17872
2148.56	1.52947
2150.01	1.29989
2151.45	1.51679
2152.9	1.30212
2154.34	1.31876
2155.79	1.2853
2157.23	1.5335
2158.67	1.69938
2160.12	1.45218
2161.56	1.27252
2163	1.30967
2164.45	1.81257
2165.89	1.75241
2167.33	1.55918
2168.78	1.54774
2170.22	1.43508
2171.66	1.55359
2173.1	1.47092
2174.54	1.85287
2175.98	1.56897
2177.42	1.46822
2178.86	1.7837
2180.3	1.51805
2181.74	1.80176
2183.18	1.77006
2184.62	1.55562
2186.06	1.2247
2187.5	1.70898
2188.94	1.42792
2190.38	1.51294
2191.82	1.56447
2193.25	1.19918
2194.69	1.16584
2196.13	1.56391
2197.57	1.67724
2199	1.98855
2200.44	1.05238
2201.88	0.930979
2203.31	1.35772
2204.75	1.13808
2206.18	1.30065
2207.62	1.04934
2209.05	1.06306
2210.49	0.877566
2211.92	0.923094
2213.36	1.23245
2214.79	1.39258
2216.22	1.2228
2217.66	0.740633
2219.09	0.935956
2220.52	1.09882
2221.96	0.915594
2223.39	0.830816
2224.82	1.22261
2226.25	0.773369
2227.68	0.915442
2229.11	0.760616
2230.55	0.75316
2231.98	1.13882
2233.41	0.590787
2234.84	0.845699
2236.27	0.529172
2237.7	0.410194
2239.12	0.749561
2240.55	0.372409
2241.98	0.746944
2243.41	1.20393
2244.84	0.87832
2246.27	0.650073
2247.7	0.632724
2249.12	0.874632
2250.55	0.723589
2251.98	0.848141
2253.41	0.548983
2254.83	0.689225
2256.26	0.635456
2257.68	0.648372
2259.11	0.679592
2260.54	0.631855
2261.96	0.37489
2263.39	0.329961
2264.81	0.593992
2266.24	0.419053
2267.66	0.357234
2269.08	0.392344
2270.51	0.508288
2271.93	0.737886
2273.35	0.755719
2274.78	0.236046
2276.2	0.416899
2277.62	0.320899
2279.04	0.420522
2280.47	0.438615
2281.89	0.211964
2283.31	0.474568
2284.73	0.394627
2286.15	0.559636
2287.57	0.49641
2288.99	-0.0892158
2290.41	0.43611
2291.83	0.308188
2293.25	0.425552
2294.67	0.641171
2296.09	0.775066
2297.51	0.483269
2298.93	-0.0872478
2300.35	0.243282
2301.76	0.393941
2303.18	0.0855899
2304.6	0.269458
2306.02	0.338505
2307.44	0.522392
2308.85	-0.0172267
2310.27	0.478288
2311.69	0.18428
2313.1	0.153315
2314.52	0.517625
2315.93	0.339349
2317.35	0.507441
2318.76	0.14855
2320.18	0.498324
2321.59	-0.0433769
2323.01	0.618093
2324.42	0.38676
2325.83	0.434326
2327.25	0.596033
2328.66	0.641597
2330.07	0.786052
2331.49	0.27247
2332.9	0.286749
2334.31	0.350999
2335.72	0.0534964
2337.13	-0.0303636
2338.55	0.263293
2339.96	0.34225
2341.37	0.436837
2342.78	0.104222
2344.19	0.559216
2345.6	0.292662
2347.01	0.370612
2348.42	0.317535
2349.83	-0.0465655
2351.24	0.275867
2352.65	0.286756
2354.05	0.0684857
2355.46	0.485862
2356.87	0.120518
2358.28	0.178824
2359.69	0.0583463
2361.09	-0.0293512
2362.5	0.0938954
2363.91	0.36257
2365.31	0.226144
2366.72	0.397203
2368.13	0.11626
2369.53	0.223718
2370.94	0.154618
2372.34	0.118777
2373.75	-0.254474
2375.15	0.177692
2376.56	0.400069
2377.96	0.0586371
2379.37	0.19861
2380.77	0.160563
2382.17	0.297959
2383.58	0.322241
2384.98	0.0583339
2386.38	0.170796
2387.79	0.283623
2389.19	0.0702205
2390.59	0.03332
2391.99	0.204267
2393.39	0.200705
2394.8	0.531734
2396.2	0.322486
2397.6	0.0979538
2399	0.223522
2400.4	-0.0954185
2401.8	0.189551
2403.2	-0.0337305
2404.6	0.31443
2406	0.487197
2407.4	0.056179
2408.79	0.417959
2410.19	0.160908
2411.59	0.395402
2412.99	0.17101
2414.39	0.248489
2415.78	0.501151
2417.18	0.406516
2418.58	0.439231
2419.98	0.266364
2421.37	0.315118
2422.77	0.236893
2424.16	0.427798
2425.56	0.571247
2426.96	0.334742
2428.35	0.447542
2429.74	-0.13669
2431.14	0.0882888
2432.53	0.281853
2433.93	0.443471
2435.32	0.127793
2436.72	0.160467
2438.11	0.589241
2439.5	0.222672
2440.9	0.189085
2442.29	0.440858
2443.68	0.311382
2445.07	0.292911
2446.47	0.0999389
2447.86	0.0338206
2449.25	0.189509
2450.64	0.281891
2452.03	0.422067
2453.42	0.103858
2454.81	-0.403434
2456.2	0.228839
2457.59	0.18109
2458.98	0.149066
2460.37	0.27479
2461.76	0.257582
2463.15	0.113355
2464.54	0.0952029
2465.93	0.18739
2467.32	0.0110722
2468.7	0.118885
2470.09	0.0845199
2471.48	0.144445
2472.87	0.314091
2474.25	-0.0365486
2475.64	0.100501
2477.03	-0.124445
2478.41	0.341942
2479.8	0.227083
2481.18	0.347733
2482.57	0.311476
2483.95	-0.0851159
2485.34	-0.09061
2486.72	0.449935
2488.11	-0.181931
2489.49	0.0599866
2490.88	-0.0257044
2492.26	0.231177
2493.65	-0.163934
2495.03	0.0942464
2496.41	0.0738726
2497.79	-0.0697513
2499.18	0.0192127
2500.56	-0.000440598
2501.94	0.226675
2503.32	0.0203385
2504.7	0.122263
2506.09	0.0386147
2507.47	0.570613
2508.85	0.102204
2510.23	0.111205
2511.61	0.0285964
2512.99	0.0233493
2514.37	-0.0884795
2515.75	0.33619
2517.13	0.0878329
2518.51	-0.00694656
2519.89	0.158292
2521.26	-0.0891881
2522.64	-0.0926132
2524.02	0.162685
2525.4	0.0512981
2526.78	-0.166702
2528.15	-0.155838
2529.53	0.403182
2530.91	0.0508418
2532.28	0.0646577
2533.66	-0.0572672
2535.04	-0.284988
2536.41	-0.026547
2537.79	0.185839
2539.16	-0.255592
2540.54	0.00105381
2541.91	0.211731
2543.29	-0.00236797
2544.66	0.102806
2546.04	0.284685
2547.41	0.118604
2548.78	-0.274448
2550.16	0.0911613
2551.53	-0.196013
2552.9	0.00179768
2554.27	-0.0287628
2555.65	0.258654
2557.02	0.166329
2558.39	0.0587935
2559.76	0.118264
2561.13	0.147794
2562.51	0.32934
2563.88	0.284005
2565.25	0.345092
2566.62	0.0729856
2567.99	0.104043
2569.36	0.18059
2570.73	0.120745
2572.1	0.318612
2573.47	-0.0594468
2574.84	0.0476308
2576.2	-0.0120058
2577.57	0.155742
2578.94	-0.0405507
2580.31	-0.100621
2581.68	-0.0699925
2583.05	0.0210247
2584.41	-0.191335
2585.78	-0.0550408
2587.15	-0.0247769
2588.51	0.187497
2589.88	-0.13057
2591.24	-0.0698228
2592.61	0.278484
2593.98	-0.25252
2595.34	-0.0418959
2596.71	0.182966
2598.07	0.180096
2599.44	0.222307
2600.8	0.0529995
2602.16	-0.191258
2603.53	0.214309
2604.89	-0.240138
2606.26	0.0601349
2607.62	-0.0923862
2608.98	0.0711517
2610.34	0.23365
2611.71	0.154134
2613.07	0.0287819
2614.43	-0.0518208
2615.79	0.107647
2617.15	-0.347658
2618.52	-0.0228772
2619.88	0.0175843
2621.24	-0.0311837
2622.6	0.0251141
2623.96	0.200982
2625.32	0.0483046
2626.68	0.223736
2628.04	0.14536
2629.4	0.111559
2630.75	0.15206
2632.11	0.0437565
2633.47	0.113864
2634.83	0.0799546
2636.19	-0.0428905
2637.55	0.0271053
2638.9	0.00819874
2640.26	0.536861
2641.62	0.11876
2642.98	0.0117354
2644.33	0.126451
2645.69	0.0639391
2647.04	-0.249363
2648.4	0.409523
2649.76	0.00708723
2651.11	0.163588
2652.47	-0.0476151
2653.82	-0.00881195
2655.18	0.0011425
2656.53	0.451272
2657.88	0.00882864
2659.24	0.0210824
2660.59	0.443058
2661.95	0.104587
2663.3	0.189641
2664.65	0.025866
2666	-0.0652895
2667.36	0.0473943
2668.71	-0.378953
2670.06	-0.513415
2671.41	-0.182042
2672.76	-0.0831461
2674.12	0.219399
2675.47	0.01405
2676.82	-0.0310836
2678.17	-0.17722
2679.52	-0.0326753
2680.87	0.0110903
2682.22	0.0557313
2683.57	0.362275
2684.92	-0.0265164
2686.27	0.266778
2687.62	0.139277
2688.97	0.257666
2690.31	0.229664
2691.66	0.0261493
2693.01	-0.0912848
2694.36	0.0952115
2695.71	0.194415
2697.05	0.221546
2698.4	0.032403
2699.75	0.235517
2701.09	0.0200071
2702.44	0.254551
2703.78	0.0843349
2705.13	-0.1871
2706.48	-0.0381112
2707.82	-0.092299
2709.17	-0.175835
2710.51	0.248573
2711.86	0.280872
2713.2	0.0951324
2714.54	-0.0762215
2715.89	-0.000525475
2717.23	0.307837
2718.57	0.0924716
2719.92	0.00771666
2721.26	0.0390468
2722.6	-0.264707
2723.95	0.202628
2725.29	-0.0289903
2726.63	0.175796
2727.97	0.132922
2729.31	0.0753427
2730.65	0.235942
2732	-0.039968
2733.34	0.0770297
2734.68	-0.0531297
2736.02	0.325953
2737.36	0.196078
2738.7	0.0080471
2740.04	0.3434
2741.38	0.343923
2742.72	-0.0775995
2744.05	-0.107002
2745.39	-0.136812
2746.73	0.399458
2748.07	-0.168029
2749.41	-0.0530534
2750.75	-0.547156
2752.08	0.322103
2753.42	0.234404
2754.76	0.175884
2756.09	0.189936
2757.43	0.233073
2758.77	0.247437
2760.1	0.0160537
2761.44	0.0311193
2762.78	-0.112622
2764.11	-0.0824733
2765.44	0.280462
2766.78	0.16562
2768.11	0.0790906
2769.45	0.237501
2770.78	0.0189705
2772.12	0.261857
2773.45	-0.290016
2774.78	0.167854
2776.12	0.0343223
2777.45	0.131563
2778.78	-0.015408
2780.12	0.269343
2781.45	0.209305
2782.78	0.235536
2784.11	0.233024
2785.44	-0.0274739
2786.78	-0.00103045
2788.11	0.211838
2789.44	0.0101438
2790.77	-0.247929
2792.1	0.181045
2793.43	0.195604
2794.76	-0.432929
2796.09	0.0245461
2797.42	-0.0899711
2798.75	0.337781
2800.08	0.0798106
2801.4	-0.106786
2802.73	0.0631304
2804.06	0.175699
2805.39	-0.0682282
2806.72	0.0720315
2808.05	-0.200821
2809.37	0.00966072
2810.7	0.0352197
2812.03	0.132128
2813.35	-0.0681067
2814.68	-0.0969896
2816.01	0.0877914
2817.33	0.0182242
2818.66	0.0624895
2819.98	0.319388
2821.31	0.0940809
2822.63	0.0667386
2823.96	-0.00354242
2825.28	0.0676079
2826.61	-0.0736599
2827.93	0.167772
2829.25	0.126411
2830.58	0.425146
2831.9	0.469229
2833.23	0.456659
2834.55	0.45802
2835.87	0.48733
2837.19	0.360598
2838.52	0.530668
2839.84	0.247957
2841.16	0.545134
2842.48	0.531502
2843.8	0.702076
2845.12	0.95795
2846.44	1.18603
2847.77	1.07521
2849.08	1.60044
2850.4	1.57425
2851.73	1.32153
2853.05	1.12498
2854.36	1.22493
2855.68	1.23994
2857	1.42446
2858.32	1.38296
2859.64	1.92049
2860.96	1.68112
2862.28	1.55453
2863.59	1.49829
2864.91	2.06272
2866.23	2.02026
2867.55	2.26007
2868.86	2.13352
2870.18	2.51487
2871.5	2.44518
2872.81	2.45986
2874.13	2.75575
2875.44	2.75482
2876.76	2.89377
2878.07	2.49719
2879.39	2.90243
2880.7	2.73115
2882.02	2.81359
2883.33	3.16367
2884.65	2.96674
2885.96	2.68619
2887.28	2.7146
2888.59	2.67249
2889.9	2.64382
2891.21	2.72667
2892.53	3.08926
2893.84	3.22723
2895.15	3.04329
2896.46	2.77615
2897.78	2.87385
2899.09	3.26612
2900.4	3.23924
2901.71	3.1568
2903.02	3.39626
2904.33	3.25814
2905.64	3.30208
2906.95	3.55626
2908.26	3.68522
2909.57	3.74495
2910.88	4.16902
2912.19	3.92138
2913.5	3.84103
2914.81	4.15153
2916.12	4.53058
2917.43	4.46025
2918.73	4.66891
2920.04	4.20592
2921.35	4.68052
2922.66	5.22582
2923.96	5.42274
2925.27	5.38303
2926.58	5.30195
2927.88	5.45854
2929.19	5.32121
2930.5	5.39308
2931.8	5.49246
2933.11	5.53566
2934.41	5.55084
2935.72	5.1049
2937.02	5.66533
2938.33	5.19176
2939.63	5.5289
2940.94	5.12587
2942.24	4.69556
2943.54	4.83917
2944.85	4.52262
2946.15	4.64038
2947.45	4.59083
2948.76	4.56904
2950.06	4.25225
2951.36	4.57796
2952.66	4.08992
2953.97	3.62874
2955.27	4.11923
2956.57	4.14835
2957.87	4.2351
2959.17	3.83408
2960.47	3.23886
2961.77	3.76597
2963.07	3.57901
2964.37	3.60192
2965.67	3.38487
2966.97	3.53164
2968.27	2.65112
2969.57	3.11941
2970.87	3.15176
2972.17	3.17026
2973.47	3.10457
2974.77	2.74321
2976.07	2.62052
2977.36	2.52494
2978.66	2.39984
2979.96	2.8787
2981.26	2.55405
2982.55	2.55265
2983.85	2.18591
2985.15	2.12941
2986.44	2.20053
2987.74	1.82309
2989.03	1.79767
2990.33	1.68811
2991.63	1.62031
2992.92	1.5798
2994.21	1.53829
2995.51	1.56613
2996.8	1.73371
2998.1	1.45184
2999.39	1.36672
3000.69	1.09974
3001.98	1.21179
3003.27	1.1699
3004.57	1.12806
3005.86	1.01599
3007.15	1.08547
3008.44	1.12621
3009.74	0.80261
3011.03	0.688414
3012.32	0.769465
3013.61	0.82241
3014.9	0.777934
3016.19	0.692181
3017.48	0.732335
3018.78	0.424904
3020.07	0.562847
3021.36	0.477875
3022.65	0.350674
3023.94	0.625348
3025.23	0.580002
3026.51	0.576044
3027.8	0.517
3029.09	0.265239
3030.38	0.608959
3031.67	-0.0548081
3032.96	0.511308
3034.24	0.538995
3035.53	0.221333
3036.82	0.330411
3038.11	0.534416
3039.39	0.667752
3040.68	0.552074
3041.97	0.490812
3043.25	0.607749
3044.54	0.369004
3045.83	0.542136
3047.11	0.661819
3048.4	0.509989
3049.68	0.277933
3050.97	0.702085
3052.25	0.758296
3053.54	0.869029
3054.82	0.910939
3056.11	0.624603
3057.39	0.664724
3058.67	0.881202
3059.96	0.647774
3061.24	0.686954
3062.52	1.10756
3063.81	0.481895
3065.09	0.442165
3066.37	0.607325
3067.65	0.487658
3068.94	0.449779
3070.22	0.54762
3071.5	0.699147
3072.78	0.278472
3074.06	0.468722
3075.34	0.562885
3076.62	0.23559
3077.9	0.220993
3079.18	0.274912
3080.46	0.234834
3081.74	0.168677
3083.02	0.252565
3084.3	0.296195
3085.58	0.136229
3086.86	0.152249
3088.14	0.167658
3089.42	0.168876
3090.69	0.128934
3091.97	0.0345197
3093.25	0.130029
3094.53	0.18492
3095.8	-0.234669
3097.08	-0.0712357
3098.36	-0.19264
3099.63	0.0381069
3100.91	0.146634
3102.19	0.0654259
3103.46	0.268646
3104.74	0.13363
3106.01	0.310346
3107.29	0.0274782
3108.56	-0.0517664
3109.84	-0.00856495
3111.11	-0.316792
3112.39	-0.204914
3113.66	0.0969515
3114.94	-0.156858
3116.21	0.0904527
3117.48	-0.0833135
3118.76	0.108206
3120.03	0.136014
3121.3	0.108747
3122.57	0.243534
3123.85	0.0527987
3125.12	0.0788512
3126.39	0.105057
3127.66	0.0773926
3128.93	-0.193462
3130.21	-0.139534
3131.48	-0.0181108
3132.75	0.157034
3134.02	0.12902
3135.29	0.167988
3136.56	-0.117468
3137.83	-0.0660334
3139.1	-0.109413
3140.37	-0.00495481
3141.64	-0.0218415
3142.91	0.149444
3144.17	0.105816
3145.44	0.00887918
3146.71	-0.127815
3147.98	-0.00947237
3149.25	0.122373
