200.407	-0.0821342
202.221	-0.0563631
204.035	-0.0293674
205.849	0.728237
207.665	0.488777
209.478	-0.164124
211.291	0.542642
213.104	0.737491
214.916	-0.475925
216.73	0.347786
218.541	0.0803995
220.352	-0.0165911
222.163	0.371234
223.973	-0.159161
225.785	-0.519301
227.595	0.135484
229.404	0.306399
231.213	0.355897
233.022	0.212008
234.83	0.574938
236.638	0.119279
238.448	-0.0930586
240.255	0.0103846
242.062	-0.221455
243.868	-0.0179358
245.675	-0.224566
247.48	0.243134
249.286	0.225403
251.091	0.107895
252.896	0.590982
254.702	0.10686
256.506	-0.256744
258.31	-0.0890903
260.113	0.152288
261.916	0.154581
263.719	-0.612381
265.521	0.28402
267.323	0.313499
269.125	0.511389
270.926	0.0816431
272.727	0.08461
274.527	0.279014
276.328	-0.0104237
278.127	0.276764
279.927	0.031765
281.726	-0.166879
283.525	-0.126604
285.323	0.368631
287.121	0.67002
288.919	0.275392
290.716	0.50505
292.513	-0.00640106
294.31	0.321597
296.104	0.459404
297.9	0.239711
299.696	0.450726
301.491	-0.00736618
303.286	-0.25111
305.081	-0.35268
306.875	0.570505
308.669	0.252782
310.463	0.0073576
312.256	0.358673
314.047	-0.241105
315.839	0.327755
317.631	0.112561
319.423	0.113151
321.215	0.925214
323.006	0.23653
324.794	-0.0469351
326.585	0.290136
328.375	0.316763
330.165	0.55787
331.954	0.295726
333.741	0.390481
335.53	0.0763178
337.318	0.740911
339.106	0.51792
340.894	0.86735
342.679	0.570138
344.466	0.153599
346.253	1.29034
348.039	0.70783
349.823	0.149971
351.608	0.0458574
353.393	-0.106506
355.176	0.575053
356.961	0.157913
358.745	0.859849
360.529	0.202243
362.31	0.615428
364.093	0.361384
365.876	0.059474
367.657	0.160789
369.439	0.355862
371.221	0.0522051
373	-0.062253
374.781	-0.0823393
376.56	0.0392475
378.34	-0.0276346
380.12	-0.022893
381.898	0.618422
383.677	0.178041
385.456	-0.260559
387.233	0.101295
389.011	-0.546177
390.787	0.0757723
392.565	-0.00622749
394.34	-0.134654
396.117	0.113
397.894	0.337249
399.668	0.913606
401.444	-0.0136986
403.217	0.420615
404.993	-0.155777
406.766	0.11256
408.54	-0.0893831
410.312	0.0604687
412.086	0.327578
413.858	-0.0386133
415.631	0.229409
417.402	-0.0649948
419.174	0.39208
420.944	0.356601
422.716	-0.148625
424.486	-0.0208139
426.257	0.552162
428.025	0.443439
429.794	0.216834
431.564	0.506543
433.332	0.819932
435.101	0.0540361
436.868	0.531961
438.637	0.211237
440.403	0.358449
442.169	0.480128
443.937	0.45885
445.703	0.599669
447.468	0.434705
449.234	0.0356512
450.999	0.501793
452.765	-0.153106
454.528	0.686077
456.292	0.498366
458.057	0.217613
459.819	0.00712299
461.582	-0.0629597
463.344	-0.0386066
465.107	0.406157
466.868	-0.12234
468.629	0.53689
470.392	0.873003
472.152	0.605139
473.912	0.801871
475.672	0.647602
477.433	1.14328
479.192	0.961461
480.951	1.12793
482.709	0.805368
484.469	0.251042
486.226	0.746716
487.984	0.429133
489.74	0.812902
491.499	0.964895
493.255	0.580433
495.011	0.52286
496.767	0.90982
498.522	1.32061
500.277	0.465301
502.033	0.49973
503.788	0.509811
505.541	0.354226
507.295	1.1142
509.048	0.767576
510.801	0.607328
512.553	1.29254
514.308	0.940826
516.06	-0.0474033
517.811	1.2684
519.562	0.419456
521.313	0.110896
523.063	0.459696
524.814	0.925232
526.563	0.592612
528.313	0.752721
530.062	0.912536
531.811	0.369096
533.559	0.363866
535.308	0.661556
537.055	0.396468
538.803	0.807525
540.55	0.120401
542.297	0.621991
544.043	0.493799
545.789	-0.052412
547.535	0.354384
549.281	0.273616
551.026	0.308999
552.771	-0.11817
554.515	0.749706
556.259	0.346451
558.003	-0.378498
559.747	0.14247
561.49	0.686047
563.233	0.217218
564.975	0.462183
566.717	0.408809
568.459	0.356257
570.2	0.740781
571.942	0.392261
573.68	-0.000407219
575.421	0.0444536
577.161	0.38921
578.901	-0.159794
580.64	0.0723104
582.379	0.327735
584.118	0.628868
585.855	0.308281
587.593	0.0092659
589.331	-0.175996
591.068	-0.017065
592.805	0.371411
594.54	0.253541
596.277	-0.554523
598.013	0.523935
599.749	0.405686
601.484	0.217631
603.217	0.350396
604.952	0.412671
606.687	0.105934
608.421	-0.0864639
610.153	-0.00339317
611.886	-0.447598
613.619	-0.0423536
615.35	-0.209789
617.083	-0.0103674
618.815	0.394548
620.547	0.454695
622.276	0.513544
624.008	0.365671
625.738	0.172262
627.467	-0.179741
629.197	0.109357
630.927	0.0126114
632.655	0.260104
634.384	-0.0618734
636.113	0.209291
637.839	0.0680046
639.568	-0.0757771
641.293	0.530472
643.021	0.404142
644.748	-0.178633
646.473	0.218042
648.2	-0.225278
649.924	0.357233
651.65	0.352419
653.376	0.374123
655.099	-0.283304
656.824	0.267044
658.546	-0.0466833
660.271	0.551275
661.993	-0.152874
663.716	0.670909
665.438	0.0985584
667.161	0.164285
668.881	-0.0451908
670.604	0.615092
672.324	0.659791
674.045	-0.0487528
675.765	0.0458374
677.486	0.41714
679.204	0.674542
680.925	0.908525
682.643	0.703978
684.361	0.312881
686.08	0.495162
687.797	0.606883
689.516	-0.111707
691.232	0.205514
692.95	0.752471
694.666	0.216101
696.382	0.945476
698.099	0.982639
699.813	1.0185
701.528	0.892134
703.244	-0.292317
704.958	0.246726
706.673	0.62381
708.387	0.976971
710.099	0.481375
711.814	0.764614
713.526	0.475219
715.238	0.140425
716.949	0.833618
718.663	1.20626
720.374	0.621186
722.084	1.31252
723.796	1.02434
725.506	0.895674
727.216	1.28935
728.925	0.592647
730.636	1.09834
732.345	0.991157
734.053	0.816097
735.761	0.370194
737.471	1.50613
739.178	0.362059
740.885	0.528286
742.592	1.05583
744.298	1.24635
746.006	1.57313
747.712	0.866299
749.417	1.39823
751.122	1.03171
752.827	0.846415
754.532	1.20236
756.236	1.42496
757.942	1.49172
759.645	0.861656
761.348	1.08861
763.051	1.67746
764.753	0.957335
766.456	1.36487
768.158	1.25111
769.859	1.24817
771.56	1.80851
773.261	1.39502
774.964	1.07151
776.664	1.94686
778.364	1.71562
780.064	1.6442
781.763	1.8454
783.462	1.8659
785.16	1.74949
786.859	1.56277
788.557	1.75766
790.255	1.17995
791.952	1.68518
793.649	1.46527
795.346	1.20034
797.042	0.981813
798.738	2.04893
800.434	1.38342
802.127	1.34999
803.823	1.0924
805.517	1.37443
807.212	1.65542
808.906	1.71036
810.6	1.53961
812.293	1.12149
813.987	1.15158
815.68	1.56193
817.372	0.853154
819.064	1.21839
820.754	2.18613
822.446	1.41226
824.137	1.44303
825.828	1.23003
827.519	1.39798
829.209	1.54626
830.897	1.83122
832.587	1.33948
834.276	1.07236
835.966	1.92119
837.654	1.56575
839.341	1.87864
841.029	1.36372
842.717	0.981207
844.404	1.58125
846.091	1.80222
847.776	2.15928
849.463	1.57959
851.149	1.87491
852.833	1.54523
854.519	0.811985
856.204	2.03124
857.889	1.47564
859.572	1.59244
861.256	1.2122
862.94	1.55079
864.622	0.536162
866.305	0.714764
867.988	0.689906
869.669	1.54419
871.351	0.729228
873.033	0.77112
874.713	1.26423
876.395	1.46412
878.074	0.58073
879.755	0.329062
881.435	0.573667
883.114	0.501589
884.794	0.58652
886.471	0.241311
888.15	0.458894
889.829	0.967968
891.506	1.06937
893.184	0.831481
894.861	0.930356
896.538	1.02798
898.214	0.607926
899.891	0.344882
901.566	0.552213
903.242	0.60184
904.916	0.0253992
906.592	0.789847
908.266	0.705871
909.941	0.934693
911.614	1.05271
913.288	1.21562
914.961	0.956751
916.635	0.410031
918.306	1.06108
919.979	0.603904
921.651	0.833891
923.321	1.48458
924.994	1.14193
926.664	0.580757
928.336	0.705915
930.005	1.53839
931.674	1.55494
933.345	0.865864
935.014	1.23592
936.682	0.680002
938.352	0.98511
940.019	0.71799
941.687	0.628483
943.356	0.252821
945.022	0.539021
946.689	0.625619
948.357	1.21817
950.022	0.815528
951.688	1.09579
953.355	1.13327
955.02	0.731254
956.684	1.36841
958.348	0.751791
960.014	0.446411
961.678	0.826912
963.341	0.522689
965.004	1.256
966.669	1.27929
968.331	0.436776
969.993	0.587798
971.655	1.22449
973.316	0.733515
974.979	0.642097
976.64	1.5477
978.3	1.01733
979.961	0.85252
981.62	0.687268
983.28	0.487459
984.941	0.839193
986.6	1.03385
988.259	0.562823
989.917	0.444783
991.575	0.149421
993.233	0.848163
994.89	0.508677
996.547	0.897755
998.204	0.735142
999.86	1.25562
1001.52	1.75303
1003.17	1.94124
1004.83	0.941285
1006.49	1.17326
1008.14	0.57057
1009.79	0.7371
1011.45	0.267881
1013.1	0.4572
1014.76	-0.317069
1016.41	0.529896
1018.06	0.326208
1019.72	1.12956
1021.37	0.534113
1023.02	0.377282
1024.67	0.789688
1026.32	0.547038
1027.97	1.33143
1029.62	0.607608
1031.27	0.843876
1032.92	0.205156
1034.57	0.590939
1036.22	1.4545
1037.87	1.22661
1039.52	0.520081
1041.17	1.0116
1042.82	0.677758
1044.47	0.932661
1046.11	0.55948
1047.76	0.253503
1049.41	0.448681
1051.06	0.449668
1052.7	0.581831
1054.35	0.0625582
1055.99	0.390719
1057.64	0.414418
1059.28	0.459404
1060.93	0.416809
1062.57	0.438694
1064.22	0.0900545
1065.86	0.849227
1067.5	0.520286
1069.15	0.668548
1070.79	0.142831
1072.43	0.550817
1074.08	0.373079
1075.72	0.586912
1077.36	0.541727
1079	0.584553
1080.64	1.17028
1082.28	-0.0654421
1083.92	0.671255
1085.56	0.647423
1087.2	0.274911
1088.84	0.420466
1090.48	0.196262
1092.12	0.33877
1093.76	0.37251
1095.39	0.255316
1097.03	0.785836
1098.67	0.821436
1100.31	0.320589
1101.94	0.74743
1103.58	0.0786552
1105.22	0.336359
1106.85	0.293493
1108.49	0.185873
1110.12	0.550283
1111.76	-0.0112505
1113.39	0.564697
1115.03	0.687887
1116.66	0.745934
1118.29	0.696798
1119.93	1.11975
1121.56	0.57968
1123.19	1.43243
1124.82	1.10883
1126.46	1.02165
1128.09	0.871183
1129.72	0.978095
1131.35	0.551119
1132.98	0.552086
1134.61	-0.066947
1136.24	-0.0452309
1137.87	0.317382
1139.5	0.465007
1141.13	0.355307
1142.76	0.202513
1144.39	0.0713205
1146.01	-0.400194
1147.64	0.0246191
1149.27	0.386097
1150.9	0.00239563
1152.53	0.811433
1154.15	0.129467
1155.78	0.383954
1157.4	0.340285
1159.03	0.849998
1160.65	-0.0218935
1162.28	0.383316
1163.9	0.385508
1165.53	0.664639
1167.15	0.66715
1168.78	0.711128
1170.4	0.392077
1172.02	0.0713339
1173.65	0.280006
1175.27	0.423512
1176.89	0.439062
1178.51	-0.392532
1180.14	0.365299
1181.76	0.213382
1183.38	-0.529646
1185	0.270722
1186.62	0.140123
1188.24	-0.0551243
1189.86	-0.18865
1191.48	0.139489
1193.1	-0.35465
1194.71	-0.0293903
1196.33	0.462676
1197.95	0.284289
1199.57	0.379923
1201.19	0.414992
1202.8	0.891131
1204.42	0.805933
1206.04	0.723029
1207.65	0.620684
1209.27	0.497831
1210.88	0.144842
1212.5	0.853731
1214.12	0.809577
1215.73	0.4925
1217.35	1.11026
1218.96	1.31008
1220.57	0.990351
1222.19	0.568266
1223.8	0.811263
1225.41	1.36599
1227.03	0.86627
1228.64	1.31996
1230.25	1.75395
1231.86	1.42418
1233.47	1.01316
1235.08	1.26485
1236.69	1.60051
1238.31	1.04843
1239.92	1.15853
1241.52	1.02069
1243.13	1.77208
1244.74	1.81942
1246.35	1.98983
1247.96	1.76597
1249.57	1.68614
1251.18	1.10947
1252.78	1.4433
1254.39	1.2814
1256	1.6791
1257.6	1.4162
1259.21	1.36136
1260.82	1.28672
1262.42	1.58528
1264.03	1.0555
1265.63	0.835773
1267.24	1.0505
1268.84	1.30584
1270.45	1.72606
1272.05	1.64757
1273.65	1.4436
1275.26	1.21793
1276.86	1.30223
1278.46	0.702046
1280.06	0.805726
1281.67	1.34364
1283.27	0.95023
1284.87	1.67437
1286.47	1.44798
1288.07	1.2228
1289.67	2.07325
1291.27	1.93224
1292.87	1.43994
1294.47	1.09163
1296.07	1.23787
1297.67	1.07274
1299.27	1.15367
1300.87	1.89269
1302.47	2.19662
1304.06	1.59345
1305.66	1.95695
1307.26	1.7441
1308.85	1.79807
1310.45	2.38475
1312.05	1.74228
1313.64	1.75636
1315.24	1.9758
1316.83	1.74672
1318.43	2.68155
1320.02	2.12662
1321.62	2.46789
1323.21	1.87075
1324.8	2.59425
1326.4	1.46703
1327.99	2.43032
1329.59	2.50077
1331.18	2.26943
1332.77	2.64717
1334.36	2.88553
1335.95	1.9551
1337.54	1.9541
1339.14	2.51683
1340.73	2.91585
1342.32	2.5873
1343.91	2.29737
1345.5	2.46861
1347.09	2.73972
1348.67	1.63003
1350.26	1.34558
1351.85	1.78423
1353.44	1.7848
1355.03	1.48699
1356.62	0.929993
1358.2	1.69134
1359.79	1.87209
1361.38	2.01161
1362.96	0.973125
1364.55	1.35092
1366.14	1.40972
1367.72	1.92729
1369.31	1.8485
1370.89	1.17426
1372.48	1.37722
1374.06	1.36244
1375.64	1.30858
1377.23	1.55332
1378.81	1.1608
1380.39	1.04587
1381.98	0.710849
1383.56	1.48835
1385.14	1.94615
1386.72	0.873217
1388.3	1.42979
1389.89	1.7285
1391.47	1.71045
1393.05	1.19733
1394.63	0.863354
1396.21	1.22338
1397.79	0.611189
1399.37	1.28644
1400.95	1.48477
1402.52	1.10822
1404.1	1.741
1405.68	1.54315
1407.26	0.990602
1408.84	1.1704
1410.42	2.00245
1411.99	1.39248
1413.57	1.09815
1415.15	1.13857
1416.72	1.53305
1418.3	1.15799
1419.87	1.47311
1421.45	1.25737
1423.02	1.5158
1424.6	1.34283
1426.17	1.58451
1427.75	1.55124
1429.32	1.63581
1430.89	0.833763
1432.47	1.97894
1434.04	2.07988
1435.61	1.47226
1437.18	1.94653
1438.76	2.36235
1440.33	1.63919
1441.9	3.00037
1443.47	2.45596
1445.04	2.73743
1446.61	2.72431
1448.18	3.14381
1449.75	2.60039
1451.32	2.86351
1452.89	2.93065
1454.46	2.72286
1456.03	2.67236
1457.6	3.19185
1459.16	2.84406
1460.73	2.25819
1462.3	2.61483
1463.87	2.63507
1465.43	1.88749
1467	2.35822
1468.56	2.0631
1470.13	1.69072
1471.7	1.90832
1473.26	1.53854
1474.83	1.34621
1476.39	1.19359
1477.96	1.17835
1479.52	1.51589
1481.08	1.03005
1482.65	1.07337
1484.21	1.19492
1485.77	0.454105
1487.34	1.24055
1488.9	1.12461
1490.46	0.733009
1492.02	1.29784
1493.58	0.72657
1495.15	0.759551
1496.71	0.538058
1498.27	1.05635
1499.83	0.640941
1501.39	0.635226
1502.95	0.300972
1504.51	-0.0511618
1506.07	1.1656
1507.63	0.909692
1509.18	0.691931
1510.74	-0.00888252
1512.3	0.0235376
1513.86	0.132489
1515.41	0.491186
1516.97	0.503968
1518.53	0.824274
1520.08	0.339943
1521.64	0.90929
1523.2	0.540503
1524.75	0.496373
1526.31	0.39418
1527.86	0.500839
1529.42	-0.0398426
1530.97	0.161471
1532.52	0.495411
1534.08	0.355857
1535.63	0.501347
1537.19	1.19534
1538.74	0.472958
1540.29	0.883787
1541.84	0.917146
1543.4	0.912706
1544.95	1.07729
1546.5	1.03471
1548.05	0.992047
1549.6	1.04315
1551.15	1.00068
1552.7	1.46388
1554.25	1.14218
1555.8	0.784999
1557.35	0.896622
1558.9	1.43919
1560.45	1.3491
1562	1.42857
1563.54	1.22935
1565.09	1.34787
1566.64	1.85842
1568.19	1.84629
1569.73	1.64708
1571.28	1.89544
1572.83	1.9755
1574.37	1.62605
1575.92	1.81796
1577.47	1.7674
1579.01	1.64256
1580.56	1.92911
1582.1	1.97377
1583.64	2.41164
1585.19	2.10308
1586.73	2.58004
1588.28	2.19718
1589.82	1.73893
1591.36	0.999084
1592.9	1.68134
1594.45	1.95164
1595.99	1.86615
1597.53	1.83722
1599.07	2.12769
1600.61	1.57501
1602.15	2.42988
1603.69	1.63315
1605.23	2.03733
1606.77	2.30887
1608.31	2.27773
1609.85	1.62391
1611.39	1.68197
1612.93	1.39993
1614.47	2.2242
1616.01	1.6965
1617.55	2.55698
1619.08	1.48805
1620.62	2.51908
1622.16	1.34158
1623.7	1.66305
1625.23	1.14213
1626.77	1.64999
1628.3	1.33311
1629.84	1.9688
1631.37	1.79908
1632.91	1.51705
1634.44	2.0943
1635.98	1.92544
1637.51	1.58983
1639.05	2.03814
1640.58	2.37437
1642.11	1.96452
1643.65	2.29872
1645.18	1.99857
1646.71	2.08835
1648.24	2.15906
1649.78	2.2486
1651.31	2.09778
1652.84	1.91132
1654.37	2.43071
1655.9	2.8763
1657.43	2.39511
1658.96	2.67284
1660.49	2.54165
1662.02	2.48304
1663.55	2.55265
1665.08	2.45526
1666.61	2.13691
1668.14	2.46563
1669.66	1.83701
1671.19	2.5187
1672.72	1.8933
1674.25	2.02376
1675.77	1.62003
1677.3	1.8415
1678.83	1.67538
1680.35	1.60028
1681.88	1.5796
1683.4	1.85238
1684.93	1.24404
1686.45	1.68212
1687.98	1.25868
1689.5	1.20247
1691.03	1.45781
1692.55	1.29206
1694.07	1.10812
1695.6	0.869351
1697.12	0.721945
1698.64	0.519586
1700.17	0.718571
1701.69	0.479088
1703.21	0.275856
1704.73	0.545882
1706.25	0.68767
1707.77	0.428979
1709.29	0.988009
1710.81	0.765775
1712.33	0.362741
1713.85	0.522176
1715.37	0.608988
1716.89	0.370008
1718.41	0.962654
1719.93	0.452691
1721.45	0.286538
1722.97	0.391577
1724.49	0.0289221
1726	1.12645
1727.52	0.478243
1729.04	0.659178
1730.55	0.551556
1732.07	0.249208
1733.59	0.776
1735.1	0.419046
1736.62	0.437103
1738.13	0.166795
1739.65	0.30944
1741.16	0.397542
1742.68	0.364074
1744.19	-0.179104
1745.7	0.101045
1747.22	0.235952
1748.73	0.217521
1750.24	0.367889
1751.76	0.0533953
1753.27	0.0552521
1754.78	-0.19907
1756.29	-0.12831
1757.8	0.276039
1759.31	0.708954
1760.83	0.0401354
1762.34	0.0854988
1763.85	0.687304
1765.36	0.162485
1766.87	0.349794
1768.38	0.185379
1769.89	-0.0180416
1771.39	-0.0304508
1772.9	0.437307
1774.41	-0.158656
1775.92	-0.376699
1777.43	0.0578566
1778.94	0.0932007
1780.44	0.0991087
1781.95	-0.139842
1783.46	0.120284
1784.96	0.0211725
1786.47	0.0948544
1787.97	0.230656
1789.48	0.0518064
1790.99	0.271477
1792.49	0.376338
1794	0.0432243
1795.5	0.0874434
1797	0.114793
1798.51	0.178485
1800.01	0.280415
1801.51	-0.0426493
1803.02	-0.160135
1804.52	0.0338116
1806.02	0.178156
1807.53	0.0699844
1809.03	0.221151
1810.53	-0.0446558
1812.03	0.251408
1813.53	0.0877972
1815.03	0.0673389
1816.53	-0.260322
1818.03	0.0256987
1819.53	0.132934
1821.03	0.0188475
1822.53	0.104897
1824.03	0.197912
1825.53	0.107625
1827.03	0.0787258
1828.53	0.0408087
1830.02	0.0243063
1831.52	0.141817
1833.02	0.0781698
1834.52	0.137738
1836.01	-0.0644226
1837.51	-0.0132456
1839.01	0.0109987
1840.5	0.188663
1842	-0.0109863
1843.49	-0.124922
1844.99	-0.102352
1846.48	-0.120582
1847.98	0.0567284
1849.47	-0.117105
1850.97	-0.182112
1852.46	0.263882
1853.95	0.183396
1855.45	-0.10561
1856.94	-0.177767
1858.43	0.250707
1859.93	0.195202
1861.42	0.0648651
1862.91	0.132397
1864.4	0.0246649
1865.89	-0.195799
1867.38	-0.04179
1868.87	-0.0587549
1870.36	0.0684996
1871.85	0.154387
1873.34	0.404136
1874.83	0.223811
1876.32	-0.0579977
1877.81	0.206341
1879.3	0.110229
1880.79	0.0841818
1882.28	-0.168793
1882.52	-0.219514
1884.02	0.33789
1885.51	-0.308223
1887.01	0.0730953
1888.5	0.0531769
1889.99	0.120438
1891.49	0.0667925
1892.98	0.205884
1894.47	0.155367
1895.97	0.088871
1897.46	0.266594
1898.95	-0.00799084
1900.44	0.412308
1901.93	0.483172
1903.42	0.0132122
1904.91	0.0290089
1906.4	-0.251288
1907.89	-0.184024
1909.38	-0.22044
1910.87	0.00425434
1912.36	0.142887
1913.85	-0.151617
1915.34	0.0395975
1916.83	0.230436
1918.32	0.31669
1919.8	0.0732698
1921.29	0.210975
1922.78	-0.118561
1924.27	-0.222104
1925.75	-0.0130281
1927.24	0.197
1928.73	-0.354185
1930.21	0.0122442
1931.7	0.256789
1933.18	-0.0194778
1934.67	0.274011
1936.15	0.652208
1937.64	0.458254
1939.12	0.385056
1940.61	-0.102182
1942.09	0.257534
1943.57	0.117611
1945.06	-0.124884
1946.54	-0.0221109
1948.02	0.0286865
1949.51	-0.0245762
1950.99	0.127925
1952.47	-0.27121
1953.95	-0.171669
1955.43	0.151046
1956.91	-0.127351
1958.4	0.418996
1959.88	0.193515
1961.36	-0.0484085
1962.84	-0.204256
1964.32	-0.000349045
1965.8	-0.32794
1967.27	0.148623
1968.75	0.230626
1970.23	0.2436
1971.71	0.444193
1973.19	0.166533
1974.67	-0.0765276
1976.14	0.19223
1977.62	-0.135365
1979.1	0.167348
1980.58	0.350561
1982.05	0.261396
1983.53	0.138103
1985	0.0486279
1986.48	-0.108772
1987.95	-0.130377
1989.43	0.0854044
1990.9	0.166103
1992.38	0.0953388
1993.85	-0.228029
1995.33	0.0917473
1996.8	0.225868
1998.27	0.123433
1999.75	0.206377
2001.22	0.153704
2002.69	0.15122
2004.16	0.165475
2005.64	0.365364
2007.11	0.00993919
2008.58	0.278623
2010.05	0.362787
2011.52	0.0265846
2012.99	0.313267
2014.46	0.0609655
2015.93	-0.276041
2017.4	-0.243626
2018.87	0.0570192
2020.34	0.172056
2021.81	0.152502
2023.28	0.267539
2024.75	0.215415
2026.22	-0.338814
2027.69	-0.120097
2029.15	-0.101362
2030.62	-0.0646753
2032.09	0.00644112
2033.56	0.514513
2035.02	0.351193
2036.49	0.120211
2037.96	0.0230494
2039.42	-0.259395
2040.89	0.0967855
2042.35	0.251689
2043.82	0.42419
2045.28	0.244285
2046.75	-0.187634
2048.21	-0.0975494
2049.67	-0.311027
2051.14	0.435503
2052.6	0.0680017
2054.07	-0.250618
2055.53	0.204973
2056.99	-0.183757
2058.45	0.117965
2059.92	0.0992689
2061.38	-0.0369062
2062.84	0.181209
2064.3	0.400132
2065.76	0.317016
2067.22	-0.10191
2068.68	0.0350447
2070.14	-0.366353
2071.6	0.0571337
2073.06	0.244875
2074.52	-0.274826
2075.98	0.451276
2077.44	0.132992
2078.9	0.201668
2080.36	0.185734
2081.82	-0.20109
2083.27	0.253281
2084.73	0.201919
2086.19	0.52
2087.65	0.0469885
2089.1	0.431141
2090.56	-0.125925
2092.02	0.442343
2093.47	-0.332428
2094.93	0.100876
2096.38	0.0304403
2097.84	0.0600004
2099.29	-0.111861
2100.75	0.11761
2102.2	0.163111
2103.66	-0.0912929
2105.11	0.20647
2106.56	0.271633
2108.02	-0.0792656
2109.47	0.020525
2110.92	0.00310802
2112.38	0.151193
2113.83	-0.584951
2115.28	0.0597029
2116.73	0.303505
2118.18	-0.117236
2119.63	-0.254021
2121.09	0.191607
2122.54	0.340052
2123.99	-0.00773621
2125.44	-0.255402
2126.89	0.242843
2128.34	0.193042
2129.79	0.340907
2131.23	0.338435
2132.68	-0.0288997
2134.13	0.166618
2135.58	-0.0838237
2137.03	0.295264
2138.48	-0.00178719
2139.92	0.0994406
2141.37	0.00372791
2142.82	0.157005
2144.27	-0.0199056
2145.71	0.0845051
2147.16	-0.307959
2148.6	0.0937824
2150.05	0.0145884
2151.49	0.000809669
2152.94	-0.295475
2154.38	-0.161635
2155.83	0.170606
2157.27	0.204672
2158.72	0.587197
2160.16	0.0100708
2161.6	-0.0189843
2163.05	0.102672
2164.49	0.209157
2165.93	-0.198171
2167.38	-0.224034
2168.82	0.0318465
2170.26	0.269902
2171.7	0.339966
2173.14	0.391737
2174.58	-0.339458
2176.03	0.176386
2177.47	0.160135
2178.91	0.327404
2180.35	0.295986
2181.79	0.0990434
2183.23	0.0189514
2184.67	-0.0942001
2186.1	0.208561
2187.54	0.278515
2188.98	0.0822515
2190.42	0.0190592
2191.86	0.172056
2193.3	0.0247726
2194.73	0.542347
2196.17	-0.106977
2197.61	-0.0254245
2199.05	0.104503
2200.48	0.20014
2201.92	0.0962796
2203.35	0.192208
2204.79	0.0733881
2206.22	0.0881515
2207.66	-0.112018
2209.1	0.234297
2210.53	-0.0824175
2211.97	-0.101873
2213.4	-0.0227461
2214.83	0.303912
2216.27	0.184974
2217.7	0.0506511
2219.13	0.428722
2220.57	-0.478611
2222	0.0155959
2223.43	0.0475821
2224.86	0.210103
2226.29	0.0912042
2227.72	-0.127557
2229.16	0.162132
2230.59	0.0732241
2232.02	0.131792
2233.45	0.0431652
2234.88	-0.0282941
2236.31	0.0810933
2237.74	0.20798
2239.17	0.434263
2240.6	-0.00661945
2242.03	-0.15221
2243.45	0.649244
2244.88	0.162515
2246.31	0.0829673
2247.74	0.214089
2249.17	0.180235
2250.59	0.323678
2252.02	0.188628
2253.45	0.427099
2254.87	-0.11445
2256.3	0.0604234
2257.73	0.512958
2259.15	-0.119195
2260.58	0.159779
2262	0.294935
2263.43	0.577808
2264.85	0.487522
2266.28	0.120387
2267.7	0.272751
2269.13	0.115211
2270.55	0.0382714
2271.97	-0.0391426
2273.4	0.208979
2274.82	0.39212
2276.24	-0.0925193
2277.67	-0.0068121
2279.09	0.0952954
2280.51	0.0832558
2281.93	-0.336669
2283.35	0.0914927
2284.77	-0.149164
2286.2	-0.259182
2287.62	0.659703
2289.04	0.109565
2290.46	0.147612
2291.88	0.365755
2293.3	0.24076
2294.72	0.213801
2296.13	-0.156999
2297.55	-0.184275
2298.97	0.148882
2300.39	0.351372
2301.81	0.209953
2303.23	0.429577
2304.64	-0.105506
2306.06	0.130679
2307.48	0.301074
2308.89	0.372505
2310.31	0.0488091
2311.73	0.218024
2313.14	-0.0240459
2314.56	-0.298852
2315.98	0.118338
2317.39	0.00939178
2318.81	0.065558
2320.22	0.533925
2321.64	0.242706
2323.05	0.296214
2324.46	0.248643
2325.88	0.0341072
2327.29	0.576826
2328.7	0.5744
2330.12	0.522735
2331.53	0.307295
2332.94	0.553848
2334.35	0.0606179
2335.77	0.192947
2337.18	0.143908
2338.59	-0.152555
2340	-0.581182
2341.41	0.336489
2342.82	0.267881
2344.23	0.00253677
2345.64	0
2347.05	0.0140934
2348.46	-0.266447
2349.87	-0.0725574
2351.28	0.0713539
2352.69	0.0835171
2354.1	0.0621982
2355.51	-0.301977
2356.91	-0.209757
2358.32	0.321372
2359.73	0.0715971
2361.14	0.276883
2362.54	0.0439768
2363.95	0.0543966
2365.36	-0.258821
2366.76	-0.134865
2368.17	-0.0429382
2369.58	0.114221
2370.98	0.159451
2372.39	0.254135
2373.79	0.0758624
2375.2	0.380973
2376.6	0.379791
2378	0.232915
2379.41	-0.0918884
2380.81	0.096118
2382.22	0.314557
2383.62	0.33949
2385.02	0.0602345
2386.43	0.325193
2387.83	0.175422
2389.23	-0.052711
2390.63	0.0870481
2392.03	-0.138538
2393.44	0.241639
2394.84	0.208667
2396.24	0.00146818
2397.64	0.0969296
2399.04	-0.15672
2400.44	-0.457498
2401.84	-0.0113893
2403.24	0.307568
2404.64	0.0544705
2406.04	-0.104013
2407.44	0.101762
2408.84	-0.121542
2410.23	0.0355186
2411.63	0.240132
2413.03	0.255241
2414.43	0.0339866
2415.83	0.273176
2417.22	0.371054
2418.62	0.374779
2420.02	0.188783
2421.41	-0.171632
2422.81	0.6082
2424.21	-0.0221796
2425.6	0.472431
2427	0.555574
2428.39	0.211508
2429.79	0.232823
2431.18	0.572114
2432.58	0.467378
2433.97	0.663812
2435.36	0.176219
2436.76	0.322656
2438.15	0.149971
2439.54	0.230343
2440.94	0.103417
2442.33	0.198335
2443.72	0.308791
2445.12	0.292101
2446.51	-0.136931
2447.9	0.0681872
2449.29	-0.0120196
2450.68	0.082202
2452.07	0.398393
2453.46	0.129626
2454.85	0.193954
2456.24	0.100687
2457.64	0.0235319
2459.02	0.16768
2460.41	0.137332
2461.8	-0.00439072
2463.19	0.0745549
2464.58	-0.115655
2465.97	-0.0848775
2467.36	0.214136
2468.75	0.291934
2470.13	0.227541
2471.52	-0.120919
2472.91	-0.0442414
2474.3	-0.298908
2475.68	0.0597239
2477.07	0.276005
2478.45	-0.23052
2479.84	0.126956
2481.23	0.0449848
2482.61	-0.240601
2484	0.053093
2485.38	-0.0142117
2486.77	0.0738659
2488.15	0.270012
2489.54	0.0442276
2490.92	0.254678
2492.3	-0.187823
2493.69	-0.053884
2495.07	-0.229331
2496.45	0.278571
2497.84	-0.2358
2499.22	0.00920153
2500.6	0.1453
2501.98	0.141406
2503.36	-0.141272
2504.75	0.316221
2506.13	0.294537
2507.51	0.0418143
2508.89	0.635298
2510.27	0.214314
2511.65	0.285702
2513.03	0.158372
2514.41	0.200491
2515.79	-0.0474997
2517.17	0.194984
2518.55	0.070744
2519.93	-0.35884
2521.3	-0.0398312
2522.68	0.110343
2524.06	0.3816
2525.44	-0.24738
2526.82	-0.144644
2528.19	0.156067
2529.57	-0.0292873
2530.95	0.106086
2532.32	0.151656
2533.7	0.168017
2535.08	0.185004
2536.45	0.0196424
2537.83	-0.0247493
2539.2	0.27936
2540.58	0.0663533
2541.95	0.0504689
2543.33	0.0196524
2544.7	0.232282
2546.08	-0.145617
2547.45	-0.0522504
2548.82	-0.398117
2550.2	0.333324
2551.57	-0.407531
2552.94	0.353221
2554.32	-0.00996065
2555.69	-0.0400333
2557.06	-0.085741
2558.43	0.156558
2559.8	0.141242
2561.18	0.126393
2562.55	0.324265
2563.92	0.174083
2565.29	0.190976
2566.66	0.132308
2568.03	-0.108151
2569.4	-0.227387
2570.77	0.289943
2572.14	0.367785
2573.51	0.248647
2574.88	0.129563
2576.25	0.237903
2577.61	0.300696
2578.98	0.0297089
2580.35	0.273941
2581.72	-0.073545
2583.09	0.0790114
2584.45	0.140366
2585.82	0.353237
2587.19	0.369124
2588.55	0.279084
2589.92	0.234612
2591.29	0.144571
2592.65	-0.112535
2594.02	-0.188458
2595.38	0.476813
2596.75	0.111339
2598.11	0.108598
2599.48	0.0752873
2600.84	-0.199666
2602.21	0.0546684
2603.57	-0.0529585
2604.93	-0.190207
2606.3	0.140419
2607.66	0.168941
2609.02	0.347404
2610.39	0.268516
2611.75	0.158456
2613.11	-0.17799
2614.47	0.191534
2615.83	0.395003
2617.19	-0.301161
2618.56	0.0378804
2619.92	0.55654
2621.28	0.0134315
2622.64	-0.0503011
2624	0.274481
2625.36	-0.386094
2626.72	0.206612
2628.08	0.246836
2629.44	0.27183
2630.8	-0.0753574
2632.15	0.0238833
2633.51	0.212036
2634.87	0.162373
2636.23	0.290718
2637.59	0.492925
2638.94	0.29508
2640.3	0.378776
2641.66	0.13733
2643.02	0.236251
2644.37	0.2466
2645.73	0.109333
2647.09	0.0898304
2648.44	-0.0480824
2649.8	0.41688
2651.15	0.0864615
2652.51	0.182317
2653.86	0.278162
2655.22	0.418451
2656.57	0.0615277
2657.93	0.247662
2659.28	0.302709
2660.63	0.138737
2661.99	0.135549
2663.34	0.117229
2664.69	0.390134
2666.05	0.19523
2667.4	0.0147767
2668.75	0.329604
2670.1	0.222215
2671.45	-0.146266
2672.81	0.0384259
2674.16	0.237948
2675.51	-0.0267067
2676.86	-0.0294833
2678.21	0.359891
2679.56	0.300285
2680.91	0.111147
2682.26	0.140539
2683.61	0.185475
2684.96	0.347313
2686.31	-0.0852404
2687.66	0.105905
2689	0.165459
2690.35	0.296124
2691.7	0.207408
2693.05	0.204437
2694.4	-0.0604095
2695.74	0.138621
2697.09	0.251059
2698.44	-0.0119638
2699.79	0.189904
2701.13	0.0892005
2702.48	0.293943
2703.83	-0.0219102
2705.17	0.0973277
2706.52	0.419785
2707.86	0.147345
2709.21	-0.0531068
2710.55	0.254228
2711.9	0.416258
2713.24	0.345755
2714.58	0.536785
2715.93	0.378903
2717.27	0.337146
2718.62	0.251489
2719.96	0.601986
2721.3	0.195414
2722.65	0.516041
2723.99	0.385048
2725.33	0.617538
2726.67	0.151018
2728.01	0.164541
2729.35	0.148739
2730.7	0.452912
2732.04	0.291418
2733.38	0.391874
2734.72	0.143367
2736.06	0.375041
2737.4	0.18503
2738.74	0.431307
2740.08	0.459189
2741.42	0.501164
2742.76	-0.0244174
2744.1	0.321618
2745.43	0.565169
2746.77	0.64838
2748.11	0.0781555
2749.45	0.219387
2750.79	0.375175
2752.12	0.545562
2753.46	0.208788
2754.8	0.553327
2756.14	0.738445
2757.47	0.199625
2758.81	0.312734
2760.14	0.0208845
2761.48	0.207095
2762.81	0.784365
2764.15	0.160922
2765.49	-0.0862989
2766.82	0.273732
2768.16	0.372466
2769.49	0.238625
2770.82	0.1903
2772.16	0.227453
2773.49	0.379033
2774.82	0.155024
2776.16	0.104208
2777.49	0.168921
2778.82	0.0470591
2780.16	0.241976
2781.49	0.164059
2782.82	0.373339
2784.15	0.281108
2785.48	0.0456443
2786.82	0.254657
2788.15	0.120311
2789.48	0.0726418
2790.81	0.154519
2792.14	0.165545
2793.47	0.134082
2794.8	-0.154585
2796.13	0.0566826
2797.46	0.353041
2798.79	-0.0223994
2800.12	-0.0839324
2801.44	0.0540624
2802.77	-0.0221248
2804.1	0.0725369
2805.43	0.152456
2806.76	0.0324655
2808.08	0.153862
2809.41	-0.0379682
2810.74	0.224938
2812.07	-0.249934
2813.39	-0.255216
2814.72	-0.50029
2816.05	0.106435
2817.37	0.317122
2818.7	0.259029
2820.02	0.399375
2821.35	0.128291
2822.67	0.140076
2824	0.094625
2825.32	0.360499
2826.65	0.229772
2827.97	0.467677
2829.3	0.238859
2830.62	0.336086
2831.94	0.348563
2833.26	0.431763
2834.59	0.755275
2835.91	0.299897
2837.23	0.296963
2838.56	0.633134
2839.88	1.19521
2841.2	1.0219
2842.52	0.778396
2843.84	1.27049
2845.16	1.57947
2846.48	1.40854
2847.8	1.63368
2849.12	1.73166
2850.45	1.91416
2851.77	1.57322
2853.08	2.09393
2854.4	2.10542
2855.72	2.20149
2857.04	2.52355
2858.36	1.99809
2859.68	2.41898
2861	2.64187
2862.32	2.51143
2863.63	3.25573
2864.95	3.66073
2866.27	3.13447
2867.59	3.3703
2868.9	4.5089
2870.22	4.30828
2871.54	4.29116
2872.85	4.82338
2874.17	4.53729
2875.48	5.0671
2876.8	4.52521
2878.11	5.0664
2879.43	4.86131
2880.74	4.89575
2882.06	5.02945
2883.37	4.81316
2884.69	5.01935
2886	5.36652
2887.31	4.68908
2888.63	5.13397
2889.94	5.1569
2891.25	5.30501
2892.57	5.31213
2893.88	5.02486
2895.19	5.14435
2896.5	5.57262
2897.82	5.9319
2899.13	5.46681
2900.44	5.73024
2901.75	5.77038
2903.06	5.72683
2904.37	6.11706
2905.68	6.18591
2906.99	6.57715
2908.3	6.40987
2909.61	7.01311
2910.92	6.63768
2912.23	6.80797
2913.54	7.11743
2914.85	7.38323
2916.16	7.11492
2917.46	7.44661
2918.77	7.76288
2920.08	8.17665
2921.39	7.91988
2922.7	8.0562
2924	8.78132
2925.31	8.3477
2926.62	8.51594
2927.92	8.71222
2929.23	8.88008
2930.54	9.32683
2931.84	9.2417
2933.15	9.18422
2934.45	9.23852
2935.76	8.77588
2937.06	9.06815
2938.37	8.8436
2939.67	8.56354
2940.98	8.01864
2942.28	8.31323
2943.58	7.54719
2944.89	7.35567
2946.19	7.09551
2947.49	6.98979
2948.8	7.34561
2950.1	6.52423
2951.4	6.9047
2952.7	6.4008
2954.01	6.31537
2955.31	6.31353
2956.61	6.18673
2957.91	6.03431
2959.21	5.88496
2960.51	5.50051
2961.81	6.08519
2963.11	5.75975
2964.41	5.48936
2965.71	5.203
2967.01	5.43452
2968.31	5.31324
2969.61	4.92386
2970.91	5.20931
2972.21	4.83401
2973.51	4.81072
2974.81	4.22437
2976.1	4.7212
2977.4	4.0903
2978.7	4.27419
2980	4.11829
2981.29	3.76403
2982.59	4.01426
2983.89	3.66011
2985.18	3.49013
2986.48	3.67316
2987.78	3.11304
2989.07	3.18635
2990.37	3.21783
2991.66	2.88339
2992.96	2.59005
2994.25	2.52031
2995.55	2.32303
2996.84	2.16729
2998.14	1.80099
2999.43	2.06649
3000.73	1.96778
3002.02	1.56139
3003.31	1.46397
3004.61	1.36673
3005.9	1.54941
3007.19	1.24143
3008.48	1.28272
3009.77	0.679942
3011.07	0.901666
3012.36	0.38273
3013.65	0.91091
3014.94	0.825348
3016.23	0.684879
3017.52	0.712393
3018.81	0.601255
3020.1	0.226115
3021.4	0.532084
3022.68	0.545238
3023.97	0.210567
3025.26	0.65222
3026.55	0.247987
3027.84	0.536849
3029.13	0.0382228
3030.42	0.315428
3031.71	-0.0553522
3033	0.251597
3034.28	0.379275
3035.57	0.409842
3036.86	0.411648
3038.15	0.136321
3039.43	-0.0850925
3040.72	0.297424
3042.01	0.0193267
3043.29	0.290236
3044.58	0.314862
3045.87	0.532408
3047.15	0.0139589
3048.44	0.140079
3049.72	0.268054
3051.01	0.411118
3052.29	0.336662
3053.58	0.617041
3054.86	0.528456
3056.15	0.834494
3057.43	0.471324
3058.71	0.489309
3060	0.670464
3061.28	0.93345
3062.56	0.734724
3063.84	0.591931
3065.13	0.777016
3066.41	0.786754
3067.69	0.511988
3068.97	0.835945
3070.26	0.574975
3071.54	0.245219
3072.82	0.608003
3074.1	0.452916
3075.38	0.324323
3076.66	0.304269
3077.94	0.243954
3079.22	0.428958
3080.5	-0.239283
3081.78	0.396262
3083.06	0.544712
3084.34	-0.0252194
3085.62	-0.133796
3086.9	0.0966368
3088.18	-0.460712
3089.45	0.325119
3090.73	0.1741
3092.01	0.118054
3093.29	-0.100512
3094.56	0.0610657
3095.84	-0.00758123
3097.12	0.140864
3098.4	0.207962
3099.67	0.139497
3100.95	0.0710807
3102.22	-0.146115
3103.5	-0.0108557
3104.78	-0.321787
3106.05	0.125976
3107.33	-0.0750079
3108.6	0.117467
3109.88	0.0809155
3111.15	0.0182238
3112.43	0.0104127
3113.7	-0.118876
3114.97	0.456757
3116.25	0.273061
3117.52	0.18355
3118.79	0.0117884
3120.07	0.232482
3121.34	0.33035
3122.61	0.183767
3123.88	0.321733
3125.16	0.20259
3126.43	0.422409
3127.7	0.588561
3128.97	0.227708
3130.24	0.47596
3131.51	0.39988
3132.79	0.337354
3134.06	0.504279
3135.33	0.373693
3136.6	0.3913
3137.87	0.327668
3139.14	0.45251
3140.41	0.577143
3141.67	0.446249
3142.94	0.463748
3144.21	0.602629
3145.48	0.648072
3146.75	0.506502
3148.02	0.995515
3149.29	0.868727
