200.533	0.0533009
202.348	0.0882797
204.162	0.124043
205.976	-0.131489
207.792	-0.143684
209.605	0.353663
211.418	0.169226
213.23	-0.453299
215.044	0.330629
216.856	0.288607
218.667	0.270704
220.478	0.132159
222.289	0.236268
224.102	0.0749369
225.912	-0.18269
227.721	0.477653
229.531	-0.384326
231.34	-0.232573
233.148	0.56988
234.956	0.190227
236.766	-0.164076
238.574	-0.0828476
240.381	0.0244179
242.188	-0.180023
243.994	-0.0701418
245.801	0.087779
247.606	0.0752068
249.412	-0.0123787
251.217	-0.609866
253.024	0.407557
254.828	-0.242079
256.632	0.193359
258.436	0.291554
260.239	-0.0667801
262.042	-0.0621977
263.845	0.569961
265.647	-0.0740328
267.449	-0.139791
269.25	-0.0132046
271.052	0.208972
272.852	-0.220997
274.653	0.0709581
276.453	-0.000309944
278.253	0.191777
280.052	0.140953
281.852	0.136406
283.65	0.106064
285.449	0.194533
287.247	-0.173971
289.044	0.20138
290.842	1.1035
292.639	0.162218
294.436	0.634719
296.232	0.295005
298.028	0.290946
299.821	-0.214585
301.617	0.259162
303.412	0.15869
305.206	-0.300845
307	0.527133
308.794	0.471903
310.588	0.155027
312.381	0.529995
314.172	0.19171
315.964	0.0454512
317.756	-0.623421
319.548	0.209294
321.34	0.0424566
323.131	0.352918
324.921	0.16286
326.71	0.402291
328.5	0.139961
330.29	-0.505897
332.079	0.257671
333.868	0.20678
335.654	0.465008
337.443	0.553684
339.231	0.233708
341.018	-0.0635672
342.804	0.523048
344.591	0.392245
346.377	-0.406883
348.163	0.132087
349.947	0.312994
351.733	-0.00746822
353.518	0.196594
355.303	-0.0536728
357.085	-0.20956
358.869	0.300776
360.653	0.309339
362.435	0.626349
364.218	0.442823
366.001	-0.00241756
367.781	0.335614
369.563	-0.0865459
371.345	0.415083
373.124	0.418104
374.905	0.373469
376.686	0.210903
378.464	0.473478
380.244	0.218006
382.022	0.152185
383.801	0.416746
385.58	0.0708189
387.357	-0.109376
389.135	0.0872335
390.911	0.260982
392.689	-0.0578709
394.466	-0.39976
396.241	0.174443
398.018	0.607804
399.792	0.430298
401.568	-0.193929
403.341	0.567024
405.117	0.270344
406.889	0.0434856
408.664	0.144845
410.436	0.151938
412.21	-0.0756688
413.981	0.283691
415.755	-0.22462
417.525	0.0888939
419.298	-0.066422
421.068	0.247762
422.84	-0.00160885
424.609	-0.0169096
426.38	0.248715
428.149	0.2084
429.919	0.144186
431.688	0.361559
433.455	0.274025
435.225	0.18674
436.992	-0.111858
438.76	-0.0590262
440.527	0.696498
442.293	0.417746
444.06	-0.0501533
445.826	0.0432334
447.593	0.182272
449.357	0.203743
451.122	0.0616903
452.888	0.31693
454.651	0.618553
456.415	0.127241
458.18	-0.247015
459.942	-0.481048
461.705	0.00660658
463.469	0.680841
465.23	-0.0839782
466.991	-0.00989676
468.752	0.55444
470.515	0.144043
472.275	-0.0569592
474.035	0.439648
475.797	0.515938
477.556	0.310858
479.315	0.57009
481.073	0.572231
482.834	0.527921
484.592	0.344851
486.349	0.372988
488.106	0.519436
489.863	-0.0786448
491.622	-0.373356
493.378	0.640358
495.134	0.603642
496.889	0.16879
498.645	0.670118
500.401	0.773256
502.156	0.641256
503.91	0.2029
505.664	0.562112
507.417	0.614831
509.171	0.454535
510.923	0.363367
512.678	0.529684
514.43	0.553533
516.182	0.717341
517.933	0.36264
519.684	-0.0161524
521.435	0.168672
523.186	0.118077
524.936	0.724523
526.686	0.415428
528.435	0.294228
530.184	0.430816
531.933	0.777681
533.682	-0.163926
535.43	0.368312
537.18	0.594714
538.927	0.422621
540.674	0.692955
542.421	0.449565
544.167	0.392536
545.913	0.498256
547.659	0.209346
549.403	0.477643
551.148	0.0971637
552.893	-0.143565
554.637	0.378832
556.381	0.230999
558.125	0.245186
559.868	0.559247
561.611	-0.070529
563.354	0.520205
565.097	0.581917
566.839	0.529252
568.581	-0.165471
570.322	-0.0784721
572.063	0.261915
573.802	-0.176383
575.542	-0.108592
577.283	0.327693
579.022	-0.0381155
580.762	0.308349
582.501	-0.0111809
584.24	0.565156
585.976	0.336127
587.714	0.358953
589.452	0.334762
591.19	-0.0583305
592.927	0.307404
594.663	0.327895
596.398	0.164371
598.134	-0.0682063
599.87	-0.347082
601.605	-0.879598
603.338	-0.193964
605.073	-0.199573
606.808	0.460135
608.542	0.452501
610.274	0.513635
612.007	0.322801
613.74	0.201602
615.473	0.0352197
617.204	-0.0163598
618.936	0.275186
620.668	-0.235573
622.397	-0.19771
624.128	0.365184
625.859	0.0821228
627.588	0.256907
629.318	0.0223842
631.048	-0.0732117
632.775	0.0610099
634.505	0.333042
636.233	0.490728
637.96	0.44151
639.688	0.18463
641.416	0.586951
643.142	0.075109
644.869	-0.0725546
646.594	-0.0604267
648.32	0.49873
650.045	0.469212
651.771	0.0566792
653.496	-0.125575
655.219	0.741001
656.944	0.24479
658.667	0.979262
660.391	0.368569
662.113	0.349186
663.837	0.762071
665.558	0.876066
667.281	0.508244
669.002	0.345523
670.724	0.297784
672.444	0.686456
674.166	0.77993
675.885	0.302335
677.606	0.582042
679.325	0.678667
681.045	0.130904
682.763	0.478064
684.483	0.708797
686.2	1.00711
687.917	0.636268
689.636	0.702057
691.352	1.04365
693.07	0.854897
694.786	0.0897169
696.501	0.406262
698.219	0.836749
699.933	0.851656
701.65	0.865539
703.364	0.648772
705.078	0.822126
706.793	1.4308
708.506	0.708169
710.219	1.08615
711.934	0.570371
713.646	0.604166
715.358	0.706293
717.071	0.32874
718.782	0.909988
720.493	0.806651
722.204	0.612547
723.916	0.896581
725.626	0.520813
727.336	1.09936
729.045	0.587319
730.756	0.778605
732.464	0.65216
734.173	0.88779
735.881	1.34901
737.59	0.974216
739.297	1.11959
741.004	1.13032
742.711	0.511395
744.417	1.60532
746.125	1.23676
747.831	0.892189
749.537	0.571412
751.242	0.499176
752.946	1.39521
754.651	0.605383
756.357	1.00914
758.061	1.25695
759.764	1.37111
761.467	0.922733
763.17	1.33156
764.872	1.01817
766.575	1.0649
768.276	1.15534
769.978	1.62839
771.679	0.946499
773.382	1.64279
775.083	1.72812
776.783	1.94962
778.483	1.13218
780.182	1.22045
781.882	1.96581
783.581	1.94228
785.279	1.53286
786.978	1.076
788.676	1.95183
790.373	1.28593
792.071	0.822041
793.768	1.68982
795.464	1.31511
797.161	1.32502
798.857	1.69666
800.552	1.57426
802.248	1.99315
803.941	1.19792
805.636	1.97673
807.33	1.83287
809.024	1.57583
810.718	2.35034
812.412	1.0151
814.105	1.00338
815.798	1.5959
817.49	1.85187
819.183	1.03479
820.873	1.84927
822.564	2.23884
824.256	1.80365
825.947	2.0165
827.637	1.91929
829.328	1.66873
831.016	1.59905
832.705	1.17533
834.395	1.73382
836.084	1.69158
837.772	1.60444
839.459	1.56084
841.147	1.9849
842.835	1.26855
844.522	1.35598
846.209	1.22054
847.894	1.57848
849.581	1.98368
851.267	1.76473
852.953	1.47984
854.637	2.0254
856.322	1.7408
858.007	0.982435
859.689	0.716406
861.374	0.763775
863.058	0.854939
864.739	1.37334
866.423	1.73349
868.106	1.84522
869.787	1.4604
871.469	1.57143
873.151	1.61463
874.831	1.09369
876.512	1.52042
878.193	1.04447
879.872	1.17778
881.553	1.26564
883.231	1.30773
884.911	1.23599
886.591	0.801945
888.268	0.705265
889.947	1.44171
891.623	1.36473
893.302	1.53439
894.978	1.09524
896.656	1.15048
898.331	1.13738
900.008	1.12349
901.683	0.862523
903.359	1.31772
905.033	1.21295
906.709	1.82286
908.383	0.871399
910.058	0.924906
911.731	1.22377
913.405	1.67818
915.078	1.44376
916.752	0.877074
918.423	1.19786
920.096	1.1196
921.768	1.04199
923.438	1.03181
925.111	1.55318
926.781	0.4418
928.452	0.988036
930.122	1.11575
931.791	0.383532
933.462	0.975343
935.13	1.19218
936.799	0.880025
938.468	1.34056
940.136	1.33902
941.803	1.0297
943.472	0.919458
945.139	0.853149
946.805	0.697536
948.473	1.24672
950.139	1.22031
951.804	1.72234
953.471	0.658263
955.136	0.941132
956.801	1.04994
958.465	0.764504
960.131	0.81223
961.794	1.10427
963.458	0.86605
965.12	0.338526
966.785	0.560615
968.447	0.66985
970.109	0.511871
971.771	0.55233
973.432	1.27874
975.095	0.989067
976.756	0.9
978.417	0.745804
980.077	0.569932
981.737	0.393601
983.396	1.23443
985.057	1.07743
986.716	1.11784
988.375	1.04604
990.033	0.752103
991.691	0.789432
993.349	0.870756
995.006	0.113272
996.663	0.106825
998.32	0.827956
999.976	1.76838
1001.63	1.20983
1003.29	1.31182
1004.95	1.58929
1006.6	1.229
1008.26	1.17676
1009.91	0.905453
1011.56	0.525243
1013.22	1.15401
1014.87	0.928167
1016.53	1.18453
1018.18	0.80657
1019.83	0.604626
1021.48	0.381855
1023.14	0.925144
1024.79	0.704145
1026.44	0.986283
1028.09	1.00616
1029.74	0.850706
1031.39	0.672408
1033.04	0.536541
1034.69	0.792133
1036.34	1.54764
1037.99	0.754612
1039.64	0.702847
1041.29	1.065
1042.94	0.775729
1044.58	1.44425
1046.23	0.941164
1047.88	0.830852
1049.52	0.873991
1051.17	0.440365
1052.82	0.854534
1054.46	0.595563
1056.11	0.553814
1057.75	0.337888
1059.4	0.295423
1061.04	1.20917
1062.69	0.513197
1064.33	0.838411
1065.98	0.488718
1067.62	0.464267
1069.26	0.460747
1070.9	0.695574
1072.55	1.06033
1074.19	0.752608
1075.83	0.446004
1077.47	0.943069
1079.11	0.617061
1080.76	0.27003
1082.4	0.638557
1084.04	0.442538
1085.68	0.396961
1087.32	0.956383
1088.95	0.387435
1090.59	0.445283
1092.23	0.00490952
1093.87	-0.00314331
1095.51	0.830378
1097.15	0.606915
1098.78	0.988078
1100.42	1.0474
1102.06	0.52739
1103.69	0.611567
1105.33	0.847387
1106.97	0.352373
1108.6	0.54535
1110.24	0.801817
1111.87	0.326027
1113.51	-0.0217848
1115.14	0.552893
1116.77	0.783088
1118.41	0.0912876
1120.04	0.300749
1121.67	0.596441
1123.31	0.956964
1124.94	0.868778
1126.57	1.08086
1128.2	0.630628
1129.83	0.779835
1131.47	0.373649
1133.1	0.887002
1134.72	0.566496
1136.36	0.224142
1137.98	0.222927
1139.62	0.0498524
1141.24	0.239051
1142.87	0.0649128
1144.5	0.0830259
1146.13	-0.00489616
1147.76	0.739139
1149.38	-0.0930882
1151.01	-0.264221
1152.64	-0.00938606
1154.27	0.096014
1155.89	0.00948906
1157.52	-0.0557947
1159.14	0.155767
1160.77	0.729431
1162.39	0.0281572
1164.02	-0.0131016
1165.64	0.0523434
1167.27	-0.222627
1168.89	0.181884
1170.51	-0.0315132
1172.14	0.199802
1173.76	0.047267
1175.38	0.127316
1177	-0.195926
1178.63	0.54059
1180.25	0.0277987
1181.87	0.0452547
1183.49	-0.549865
1185.11	-0.0244713
1186.73	0.436148
1188.35	0.15628
1189.97	0.128221
1191.59	0.0776167
1193.21	-0.0581627
1194.83	0.393611
1196.45	0.676442
1198.07	0.268445
1199.68	1.01311
1201.3	0.525672
1202.92	0.542392
1204.53	0.43609
1206.15	0.707213
1207.77	0.729014
1209.38	0.563288
1211	0.292617
1212.62	0.270847
1214.23	0.643156
1215.84	0.0553045
1217.46	0.132658
1219.07	0.936336
1220.69	0.845681
1222.3	0.486247
1223.91	1.08164
1225.53	0.683627
1227.14	0.494371
1228.75	0.906287
1230.36	0.94682
1231.97	0.698998
1233.59	1.01034
1235.2	0.847387
1236.81	1.57426
1238.42	1.24793
1240.03	1.58377
1241.64	1.25805
1243.25	1.46977
1244.85	1.3084
1246.46	1.41509
1248.07	1.33463
1249.68	1.70869
1251.29	1.35834
1252.9	1.35993
1254.5	1.27945
1256.11	1.28269
1257.72	0.956037
1259.32	1.62352
1260.93	0.92601
1262.54	1.36734
1264.14	1.10468
1265.75	1.09013
1267.35	1.59315
1268.96	1.59795
1270.56	1.35298
1272.16	1.60467
1273.77	1.42001
1275.37	1.08942
1276.97	1.46271
1278.57	1.6486
1280.18	1.29544
1281.78	1.5839
1283.38	1.99635
1284.98	1.23029
1286.58	1.66458
1288.18	1.60356
1289.78	1.85338
1291.38	1.73167
1292.99	1.6512
1294.58	1.85927
1296.18	1.57038
1297.78	1.52795
1299.38	1.89667
1300.98	1.7481
1302.58	1.45445
1304.17	1.71608
1305.77	1.9971
1307.37	1.31187
1308.97	1.592
1310.56	1.46171
1312.16	2.06899
1313.76	1.67369
1315.35	1.77044
1316.95	1.56164
1318.54	1.70049
1320.14	2.06324
1321.73	1.60979
1323.32	1.52203
1324.92	1.39224
1326.51	1.54572
1328.1	1.25236
1329.7	1.42593
1331.29	1.35786
1332.88	1.97887
1334.47	1.85395
1336.07	1.73068
1337.66	1.64836
1339.25	1.36394
1340.84	1.8639
1342.43	1.31469
1344.02	1.83013
1345.61	1.33966
1347.2	1.05106
1348.79	1.30539
1350.37	1.18118
1351.96	1.57938
1353.55	0.999411
1355.14	1.24041
1356.73	1.00201
1358.31	1.44255
1359.9	0.823627
1361.49	0.663395
1363.07	1.08112
1364.66	0.64086
1366.25	1.45653
1367.83	0.937845
1369.42	0.97804
1371	0.681116
1372.59	0.743623
1374.17	1.04582
1375.75	0.890934
1377.34	0.795806
1378.92	0.640543
1380.5	0.802799
1382.09	1.00369
1383.67	0.646569
1385.25	0.169665
1386.83	0.626595
1388.42	1.06338
1390	0.984285
1391.58	0.409964
1393.16	1.06654
1394.74	0.572804
1396.32	1.22918
1397.9	0.29878
1399.48	1.01284
1401.06	0.972867
1402.64	0.457403
1404.21	0.575553
1405.79	1.38607
1407.37	1.01074
1408.95	1.46627
1410.53	0.460303
1412.1	0.619915
1413.68	0.739449
1415.26	0.542445
1416.83	0.305518
1418.41	0.659826
1419.98	1.25043
1421.56	0.679718
1423.13	0.642205
1424.71	1.17684
1426.28	0.748081
1427.86	1.08736
1429.43	0.993387
1431	0.957688
1432.58	1.17684
1434.15	1.21803
1435.72	1.12116
1437.29	1.1425
1438.87	1.53795
1440.44	1.69831
1442.01	1.89882
1443.58	1.72656
1445.15	1.8691
1446.72	1.57941
1448.29	1.95817
1449.86	1.59021
1451.43	2.08773
1453	1.75992
1454.57	1.90443
1456.14	1.77348
1457.71	2.17323
1459.27	2.17825
1460.84	1.45354
1462.41	2.20294
1463.98	1.51477
1465.54	1.57316
1467.11	0.550835
1468.67	1.2576
1470.24	1.25799
1471.81	0.455072
1473.37	0.830211
1474.94	0.480296
1476.5	0.464132
1478.07	0.683315
1479.63	-0.0385065
1481.19	0.807742
1482.76	0.281928
1484.32	-0.00871801
1485.88	0.503645
1487.45	-0.0620131
1489.01	0.526721
1490.57	0.878586
1492.13	0.602511
1493.69	0.110312
1495.26	0.0664754
1496.82	0.567452
1498.38	0.210842
1499.94	0.419165
1501.5	0.763761
1503.06	0.759558
1504.62	0.194249
1506.17	0.152805
1507.73	-0.353173
1509.29	0.551279
1510.85	-0.187286
1512.41	-0.0189929
1513.97	-0.255554
1515.52	0.239022
1517.08	0.521685
1518.64	0.229083
1520.19	-0.368848
1521.75	-0.0852008
1523.31	0.25491
1524.86	-0.0554481
1526.42	0.263348
1527.97	-0.200046
1529.52	-0.0351334
1531.08	0.16728
1532.63	0.559155
1534.19	0.17438
1535.74	0.207474
1537.29	1.01586
1538.85	-0.101988
1540.4	0.441961
1541.95	0.118411
1543.5	0.341167
1545.06	0.394127
1546.61	0.484369
1548.16	0.274115
1549.71	0.757746
1551.26	0.341824
1552.81	1.40489
1554.36	0.93435
1555.91	0.671189
1557.46	0.951128
1559.01	1.15784
1560.56	0.619889
1562.11	0.381822
1563.65	0.704298
1565.2	0.542171
1566.75	0.846612
1568.29	1.2256
1569.84	1.23102
1571.39	1.04944
1572.94	1.39029
1574.48	0.984334
1576.03	1.9038
1577.57	1.55408
1579.12	1.16734
1580.66	1.2292
1582.21	1.29175
1583.75	1.29902
1585.3	1.28824
1586.84	1.25917
1588.38	0.912213
1589.93	1.59395
1591.47	1.33987
1593.01	1.59078
1594.55	1.22349
1596.1	1.66169
1597.64	0.957239
1599.18	1.64034
1600.72	1.36794
1602.26	1.43351
1603.8	1.31131
1605.34	1.11325
1606.88	1.10182
1608.42	1.50225
1609.96	1.01736
1611.5	0.718647
1613.04	1.67681
1614.58	1.56303
1616.12	1.46781
1617.65	0.904543
1619.19	1.86035
1620.73	1.73051
1622.27	0.553422
1623.8	0.800191
1625.34	1.02817
1626.87	1.01214
1628.41	1.20083
1629.95	1.81828
1631.48	1.12596
1633.02	1.81626
1634.55	1.75938
1636.09	1.77792
1637.62	1.03263
1639.15	1.64936
1640.69	2.04203
1642.22	1.80044
1643.76	1.83737
1645.29	1.72432
1646.82	1.7036
1648.35	2.16575
1649.88	1.69924
1651.42	2.53315
1652.95	1.93921
1654.48	1.88446
1656.01	2.2566
1657.54	2.0355
1659.07	2.27685
1660.6	2.18357
1662.13	1.86707
1663.66	1.51306
1665.19	2.24882
1666.72	1.61811
1668.24	2.26178
1669.77	2.18722
1671.3	1.92987
1672.83	1.78419
1674.35	1.39958
1675.88	1.93546
1677.41	1.67891
1678.93	1.34802
1680.46	1.42104
1681.99	1.49333
1683.51	1.65706
1685.04	1.52705
1686.56	1.15912
1688.09	1.12191
1689.61	0.755342
1691.13	1.04847
1692.66	0.902169
1694.18	0.88399
1695.71	0.62803
1697.23	0.426947
1698.75	0.645817
1700.27	0.499086
1701.8	0.297416
1703.32	0.460059
1704.84	0.385292
1706.36	0.710562
1707.88	0.107955
1709.4	0.287318
1710.92	0.0490623
1712.44	0.228371
1713.96	0.0995226
1715.48	0.260561
1717	-0.392641
1718.52	0.039463
1720.04	0.109652
1721.56	-0.0727248
1723.07	0.0881467
1724.59	0.159472
1726.11	0.123684
1727.63	0.23294
1729.14	-0.340932
1730.66	0.147456
1732.18	0.0435195
1733.69	-0.128818
1735.21	-0.245387
1736.72	0.424152
1738.24	0.00507545
1739.75	-0.0982246
1741.27	-0.0442548
1742.78	0.511343
1744.3	0.155357
1745.81	0.479548
1747.32	0.0766664
1748.84	0.114329
1750.35	0.225512
1751.86	0.0864921
1753.37	0.23143
1754.89	0.218882
1756.4	-0.114235
1757.91	0.250631
1759.42	-0.0031333
1760.93	-0.322987
1762.44	-0.126064
1763.95	0.171429
1765.46	-0.0166249
1766.97	-0.181882
1768.48	-0.0826001
1769.99	-0.0281806
1771.5	0.0635295
1773.01	-0.178549
1774.52	0.0669594
1776.03	0.203669
1777.53	0.166237
1779.04	0.178191
1780.55	0.175309
1782.06	-0.00391674
1783.56	-0.0282459
1785.07	-0.0509362
1786.57	0.0884194
1788.08	0.0750136
1789.59	0.146353
1791.09	-0.245388
1792.6	-0.163452
1794.1	-0.0128517
1795.6	-0.0195608
1797.11	0.032382
1798.61	0.100436
1800.12	-0.262293
1801.62	0.116906
1803.12	0.227897
1804.63	0.0589767
1806.13	-0.100221
1807.63	-0.212772
1809.13	-0.00935459
1810.63	-0.17632
1812.14	-0.00627708
1813.64	0.128922
1815.14	0.162145
1816.64	-0.0243902
1818.14	0.13798
1819.64	0.201279
1821.14	0.0470243
1822.64	-0.0313678
1824.14	0.024538
1825.63	0.0201073
1827.13	-0.247309
1828.63	0.208492
1830.13	-0.0928855
1831.63	0.3189
1833.12	0.142797
1834.62	0.242939
1836.12	0.000423908
1837.62	0.0747385
1839.11	0.0719495
1840.61	0.0777831
1842.1	0.0240235
1843.6	-0.0540218
1845.09	0.404203
1846.59	-0.310732
1848.08	0.149432
1849.58	-0.132567
1851.07	-0.110026
1852.57	0.28768
1854.06	0.257622
1855.55	0.348909
1857.04	0.135086
1858.54	-0.000207424
1860.03	0.128681
1861.52	0.232183
1863.01	0.130246
1864.5	0.26037
1866	0.282655
1867.49	0.0844512
1868.98	0.0967579
1870.47	-0.0715919
1871.96	0.218166
1873.45	0.252647
1874.94	0.0900126
1876.43	0.0343938
1877.92	0.564038
1879.41	0.237603
1880.89	0.16032
1882.38	0.221003
1882.48	0.228508
1883.97	0.246734
1885.47	0.124927
1886.96	0.559907
1888.46	0.349915
1889.95	0.314255
1891.44	0.22721
1892.94	0.176221
1894.43	0.00494337
1895.92	0.113027
1897.41	0.534845
1898.9	0.38273
1900.4	0.368958
1901.89	-0.0983787
1903.38	0.250505
1904.87	0.0765014
1906.36	0.475399
1907.85	0.109754
1909.34	0.369781
1910.83	0.19654
1912.32	0.717975
1913.81	0.372468
1915.29	0.408659
1916.78	0.51392
1918.27	0.18539
1919.76	0.341843
1921.25	0.290251
1922.74	-0.00343418
1924.22	0.326912
1925.71	0.398379
1927.2	-0.0313721
1928.68	0.231864
1930.17	0.408566
1931.65	0.515406
1933.14	0.413305
1934.63	0.569496
1936.11	0.343572
1937.59	0.168818
1939.08	0.425881
1940.56	0.182053
1942.05	0.612207
1943.53	0.128516
1945.01	0.335633
1946.5	0.439481
1947.98	0.336288
1949.46	0.267047
1950.94	0.197096
1952.43	0.281371
1953.91	0.416664
1955.39	0.379847
1956.87	0.463576
1958.35	0.255962
1959.83	-0.0709548
1961.31	0.288716
1962.79	0.271158
1964.27	0.167808
1965.75	0.560788
1967.23	0.199731
1968.71	0.197784
1970.19	0.383401
1971.67	0.0732017
1973.14	0.207164
1974.62	0.443335
1976.1	0.389548
1977.58	0.506296
1979.05	0.21444
1980.53	-0.00901318
1982.01	0.243659
1983.48	0.223966
1984.96	0.373773
1986.43	0.3705
1987.91	0.621415
1989.38	0.364143
1990.86	0.530819
1992.33	0.376665
1993.81	0.172726
1995.28	0.392054
1996.76	0.290588
1998.23	-0.047277
1999.7	0.290066
2001.18	0.204793
2002.65	0.321613
2004.12	0.101027
2005.59	0.554895
2007.06	0.368884
2008.54	0.368944
2010.01	0.504351
2011.48	0.43813
2012.95	0.169994
2014.42	-0.047894
2015.89	0.288945
2017.36	0.355787
2018.83	0.505981
2020.3	0.420351
2021.77	0.233914
2023.24	0.450744
2024.71	0.60086
2026.17	0.131157
2027.64	0.467753
2029.11	0.419703
2030.58	0.305567
2032.04	0.427046
2033.51	0.230031
2034.98	0.45269
2036.45	0.137648
2037.91	0.578151
2039.38	0.564762
2040.84	0.500865
2042.31	-0.0503955
2043.77	0.727308
2045.24	0.614483
2046.7	0.333791
2048.17	0.423622
2049.63	0.344768
2051.1	0.60228
2052.56	0.656363
2054.02	0.23679
2055.48	0.557889
2056.95	0.658592
2058.41	0.472098
2059.87	0.942512
2061.33	0.469964
2062.8	0.334995
2064.26	0.571096
2065.72	0.505002
2067.18	0.136634
2068.64	0.677523
2070.1	0.579124
2071.56	0.413398
2073.02	0.281188
2074.48	0.653911
2075.94	0.184418
2077.4	0.438739
2078.86	0.355946
2080.31	0.525383
2081.77	0.374457
2083.23	0.593386
2084.69	0.963063
2086.14	0.255296
2087.6	0.606917
2089.06	0.823423
2090.52	0.737176
2091.97	0.516639
2093.43	0.480831
2094.88	0.662873
2096.34	0.861069
2097.79	1.00821
2099.25	0.953779
2100.7	0.464343
2102.16	0.828029
2103.61	0.707564
2105.07	0.504792
2106.52	0.470104
2107.97	0.819859
2109.43	1.08635
2110.88	0.502088
2112.33	0.750388
2113.78	1.01373
2115.24	0.709614
2116.69	0.837514
2118.14	1.1149
2119.59	0.64598
2121.04	0.643626
2122.49	1.00764
2123.94	1.32292
2125.39	1.47289
2126.84	1.12523
2128.29	1.24099
2129.74	1.45496
2131.19	1.00513
2132.64	1.15101
2134.09	1.72678
2135.54	1.54198
2136.98	1.77179
2138.43	1.6891
2139.88	1.8229
2141.33	1.66064
2142.77	1.61506
2144.22	1.68582
2145.67	2.17052
2147.11	1.81094
2148.56	2.16273
2150.01	2.01693
2151.45	2.05242
2152.9	2.21958
2154.34	2.00488
2155.79	2.23709
2157.23	2.17111
2158.67	1.79103
2160.12	2.04156
2161.56	2.49258
2163	2.39854
2164.45	2.48832
2165.89	2.21377
2167.33	2.22119
2168.78	2.56018
2170.22	2.39891
2171.66	2.38531
2173.1	2.68596
2174.54	2.12029
2175.98	2.65183
2177.42	2.60138
2178.86	2.41863
2180.3	2.33654
2181.74	2.80394
2183.18	2.45716
2184.62	2.82573
2186.06	2.01336
2187.5	2.63164
2188.94	2.38479
2190.38	2.43744
2191.82	1.84057
2193.25	2.15866
2194.69	1.8096
2196.13	1.92514
2197.57	2.40486
2199	1.95131
2200.44	2.19527
2201.88	2.18963
2203.31	1.78638
2204.75	1.48406
2206.18	1.84586
2207.62	1.76052
2209.05	1.22799
2210.49	1.92012
2211.92	1.94892
2213.36	1.86128
2214.79	1.03033
2216.22	1.48849
2217.66	1.28713
2219.09	1.30136
2220.52	1.53061
2221.96	1.28189
2223.39	1.19752
2224.82	1.35908
2226.25	1.07472
2227.68	1.1347
2229.11	1.12779
2230.55	0.693682
2231.98	1.04693
2233.41	0.941251
2234.84	0.820032
2236.27	1.17372
2237.7	1.69139
2239.12	0.578367
2240.55	0.544369
2241.98	0.93581
2243.41	0.887842
2244.84	0.660748
2246.27	0.987731
2247.7	1.134
2249.12	1.0828
2250.55	1.0461
2251.98	0.617336
2253.41	0.757825
2254.83	0.800757
2256.26	0.844724
2257.68	0.711984
2259.11	0.549096
2260.54	0.777859
2261.96	0.846354
2263.39	0.623862
2264.81	0.921405
2266.24	0.438529
2267.66	0.963158
2269.08	0.315748
2270.51	0.220776
2271.93	0.597567
2273.35	0.616078
2274.78	0.683517
2276.2	0.213446
2277.62	0.476671
2279.04	0.870501
2280.47	0.579608
2281.89	0.386331
2283.31	0.617061
2284.73	0.423638
2286.15	0.507761
2287.57	0.445251
2288.99	0.415693
2290.41	0.288378
2291.83	0.553488
2293.25	0.295584
2294.67	0.642807
2296.09	0.36826
2297.51	0.502814
2298.93	0.42454
2300.35	0.411888
2301.76	0.432227
2303.18	0.173901
2304.6	0.621242
2306.02	0.280685
2307.44	0.416031
2308.85	0.534645
2310.27	0.406236
2311.69	0.524157
2313.1	0.510475
2314.52	0.217267
2315.93	-0.322641
2317.35	0.340147
2318.76	0.0314155
2320.18	0.563346
2321.59	-0.0435696
2323.01	0.404051
2324.42	0.585933
2325.83	0.831976
2327.25	0.664191
2328.66	0.578352
2330.07	0.426841
2331.49	0.243214
2332.9	0.373256
2334.31	0.141884
2335.72	0.453682
2337.13	0.66632
2338.55	-0.0425949
2339.96	0.299932
2341.37	0.050159
2342.78	0.0300727
2344.19	0.108375
2345.6	0.301482
2347.01	-0.0459585
2348.42	0.147236
2349.83	0.0454535
2351.24	0.155757
2352.65	-0.159491
2354.05	0.406275
2355.46	0.253162
2356.87	0.100102
2358.28	0.0937271
2359.69	-0.0100498
2361.09	0.178611
2362.5	0.302004
2363.91	0.311684
2365.31	-0.0508265
2366.72	0.314835
2368.13	0.115088
2369.53	0.029387
2370.94	0.0253668
2372.34	0.489525
2373.75	0.100528
2375.15	0.0340958
2376.56	0.22489
2377.96	-0.00338173
2379.37	0.104959
2380.77	0.00319719
2382.17	0.0609584
2383.58	0.149933
2384.98	0.446441
2386.38	0.239249
2387.79	0.0331821
2389.19	0.314707
2390.59	0.278055
2391.99	0.0831404
2393.39	-0.285813
2394.8	0.189118
2396.2	0.0282516
2397.6	0.0745692
2399	0.296068
2400.4	0.0412641
2401.8	-0.117915
2403.2	0.247071
2404.6	0.246465
2406	0.038868
2407.4	0.00526857
2408.79	-0.108179
2410.19	0.0160046
2411.59	0.108517
2412.99	-0.0201817
2414.39	0.263764
2415.78	0.152946
2417.18	0.217278
2418.58	0.0289803
2419.98	0.0309453
2421.37	-0.220608
2422.77	0.208742
2424.16	0.178509
2425.56	0.243382
2426.96	-0.150972
2428.35	0.311194
2429.74	0.251025
2431.14	0.302416
2432.53	0.480982
2433.93	0.0717106
2435.32	-0.0527139
2436.72	0.218955
2438.11	0.0923057
2439.5	0.234764
2440.9	0.34469
2442.29	0.184256
2443.68	0.436291
2445.07	0.0852466
2446.47	0.257588
2447.86	0.287047
2449.25	-0.111223
2450.64	0.282695
2452.03	0.106902
2453.42	0.311553
2454.81	-0.00530338
2456.2	0.105554
2457.59	0.011013
2458.98	0.169453
2460.37	-0.0995483
2461.76	-0.0844288
2463.15	0.230416
2464.54	0.118006
2465.93	-0.184051
2467.32	0.00343704
2468.7	0.0644932
2470.09	0.204206
2471.48	0.0281892
2472.87	0.0409184
2474.25	0.0373268
2475.64	0.0332584
2477.03	-0.222564
2478.41	0.0245395
2479.8	0.239979
2481.18	-0.0622277
2482.57	0.309711
2483.95	0.00755119
2485.34	0.0806532
2486.72	0.105904
2488.11	0.192697
2489.49	0.496891
2490.88	-0.0714512
2492.26	-0.0783529
2493.65	0.163972
2495.03	0.0655279
2496.41	0.0921936
2497.79	0.0730062
2499.18	0.162417
2500.56	-0.0578785
2501.94	-0.0311127
2503.32	0.102989
2504.7	0.112758
2506.09	0.19908
2507.47	0.131109
2508.85	-0.536209
2510.23	-0.0346065
2511.61	0.00616121
2512.99	0.185392
2514.37	0.150549
2515.75	-0.0213385
2517.13	0.342971
2518.51	0.172194
2519.89	0.0934296
2521.26	0.136751
2522.64	-0.232567
2524.02	0.0386333
2525.4	0.232693
2526.78	-0.274256
2528.15	-0.0649595
2529.53	0.0840011
2530.91	0.188377
2532.28	-0.0555215
2533.66	-0.191961
2535.04	0.0215893
2536.41	-0.220642
2537.79	0.235482
2539.16	0.083251
2540.54	0.218959
2541.91	0.141812
2543.29	0.20147
2544.66	0.0190301
2546.04	0.368435
2547.41	0.00586081
2548.78	0.159678
2550.16	0.222597
2551.53	0.103084
2552.9	0.316767
2554.27	-0.0470033
2555.65	-0.123054
2557.02	-0.290474
2558.39	0.0576591
2559.76	-0.291531
2561.13	-0.321894
2562.51	0.163467
2563.88	0.027895
2565.25	-0.0467181
2566.62	0.151644
2567.99	-0.0893965
2569.36	-0.224349
2570.73	0.0347705
2572.1	0.021122
2573.47	0.113655
2574.84	-0.00595284
2576.2	0.147359
2577.57	-0.0480771
2578.94	-0.00107908
2580.31	-0.378889
2581.68	0.167958
2583.05	0.229305
2584.41	0.0327506
2585.78	0.184845
2587.15	-0.148007
2588.51	-0.0562978
2589.88	-0.0251184
2591.24	0.0817533
2592.61	-0.220818
2593.98	-0.0087924
2595.34	0.0963774
2596.71	0.00392342
2598.07	0.122776
2599.44	-0.167007
2600.8	0.0724845
2602.16	0.327194
2603.53	-0.217876
2604.89	0.0829573
2606.26	0.217813
2607.62	0.201563
2608.98	-0.131793
2610.34	-0.0890784
2611.71	0.133231
2613.07	-0.0216298
2614.43	-0.0415616
2615.79	-0.106664
2617.15	-0.0365438
2618.52	-0.0859289
2619.88	-0.149606
2621.24	0.161185
2622.6	0.202983
2623.96	0.17026
2625.32	-0.0265856
2626.68	-0.163684
2628.04	-0.0623894
2629.4	0.247002
2630.75	0.0499063
2632.11	0.0314441
2633.47	-0.031569
2634.83	0.0390935
2636.19	-0.097991
2637.55	-0.116303
2638.9	-0.282601
2640.26	0.0397191
2641.62	0.169557
2642.98	0.122158
2644.33	0.089736
2645.69	0.322874
2647.04	-0.0932508
2648.4	0.0947108
2649.76	-0.130303
2651.11	0.129774
2652.47	-0.183672
2653.82	0.251923
2655.18	0.027648
2656.53	-0.254004
2657.88	-0.109951
2659.24	0.00534964
2660.59	0.164729
2661.95	0.0315809
2663.3	0.0442214
2664.65	0.289805
2666	0.0677342
2667.36	0.107985
2668.71	-0.0557585
2670.06	-0.233582
2671.41	0.330776
2672.76	0.0666394
2674.12	0.166356
2675.47	-0.125483
2676.82	0.0331435
2678.17	0.279166
2679.52	-0.271803
2680.87	0.0770602
2682.22	0.0643315
2683.57	0.0959954
2684.92	-0.277719
2686.27	-0.259545
2687.62	0.382701
2688.97	-0.238618
2690.31	0.154993
2691.66	0.140761
2693.01	-0.121237
2694.36	0.167329
2695.71	0.368487
2697.05	0.251229
2698.4	0.033679
2699.75	0.00570488
2701.09	0.152796
2702.44	-0.0175791
2703.78	0.0445738
2705.13	0.0636997
2706.48	0.401995
2707.82	0.218033
2709.17	0.48364
2710.51	0.0956736
2711.86	0.360954
2713.2	-0.0275936
2714.54	-0.125708
2715.89	0.328608
2717.23	0.259511
2718.57	0.379318
2719.92	0.106044
2721.26	0.545455
2722.6	0.416979
2723.95	0.128016
2725.29	0.333616
2726.63	0.233276
2727.97	0.263704
2729.31	0.250301
2730.65	0.295004
2732	0.499716
2733.34	0.35533
2734.68	0.196577
2736.02	0.387084
2737.36	0.388623
2738.7	0.24473
2740.04	0.304278
2741.38	0.334391
2742.72	0.320406
2744.05	0.11698
2745.39	0.334536
2746.73	0.435431
2748.07	0.332885
2749.41	0.201453
2750.75	0.403864
2752.08	0.272877
2753.42	0.156668
2754.76	0.44635
2756.09	-0.162029
2757.43	-0.0314603
2758.77	0.18609
2760.1	0.591989
2761.44	0.173295
2762.78	0.218103
2764.11	0.277627
2765.44	-0.0245514
2766.78	0.179355
2768.11	0.165574
2769.45	0.0351906
2770.78	0.337416
2772.12	-0.156042
2773.45	0.245149
2774.78	0.299241
2776.12	0.122739
2777.45	-0.110748
2778.78	-0.142126
2780.12	0.128705
2781.45	0.126564
2782.78	0.138854
2784.11	0.380569
2785.44	0.277976
2786.78	-0.211064
2788.11	0.102475
2789.44	0.0585647
2790.77	0.229895
2792.1	0.273029
2793.43	0.0163112
2794.76	0.0598869
2796.09	0.274673
2797.42	0.246109
2798.75	-0.182643
2800.08	-0.382985
2801.4	0.158473
2802.73	0.157458
2804.06	0.355775
2805.39	0.254456
2806.72	0.451716
2808.05	-0.190945
2809.37	0.232968
2810.7	-0.0112143
2812.03	0.185317
2813.35	0.524271
2814.68	0.424529
2816.01	0.198398
2817.33	0.540123
2818.66	-0.124024
2819.98	0.133136
2821.31	0.60256
2822.63	0.192777
2823.96	0.519407
2825.28	0.094892
2826.61	0.576924
2827.93	0.492808
2829.25	0.324211
2830.58	0.56652
2831.9	0.341851
2833.23	0.471035
2834.55	0.826433
2835.87	0.572836
2837.19	0.573603
2838.52	0.899386
2839.84	0.857142
2841.16	1.05534
2842.48	1.07002
2843.8	1.48092
2845.12	1.68036
2846.44	1.68246
2847.77	1.81207
2849.08	1.98412
2850.4	2.46688
2851.73	2.07291
2853.05	2.34277
2854.36	2.31548
2855.68	2.27389
2857	2.41594
2858.32	2.26138
2859.64	2.37516
2860.96	2.54525
2862.28	2.53147
2863.59	2.82787
2864.91	3.58952
2866.23	3.27864
2867.55	3.40533
2868.86	3.72975
2870.18	3.43414
2871.5	4.11139
2872.81	4.11168
2874.13	4.56213
2875.44	4.39151
2876.76	4.23402
2878.07	4.76538
2879.39	4.60672
2880.7	4.57502
2882.02	4.61438
2883.33	4.57047
2884.65	4.63985
2885.96	4.21847
2887.28	4.40084
2888.59	4.6248
2889.9	4.56732
2891.21	4.62122
2892.53	4.67446
2893.84	4.47529
2895.15	4.57068
2896.46	4.98867
2897.78	4.70774
2899.09	5.12747
2900.4	4.98828
2901.71	4.72367
2903.02	5.1307
2904.33	5.36996
2905.64	5.25978
2906.95	5.23403
2908.26	5.99243
2909.57	6.08029
2910.88	6.36468
2912.19	6.24324
2913.5	6.23298
2914.81	6.62729
2916.12	6.65578
2917.43	6.9345
2918.73	7.08604
2920.04	7.01347
2921.35	7.5568
2922.66	8.08719
2923.96	8.22758
2925.27	7.89397
2926.58	8.5675
2927.88	8.41634
2929.19	8.5583
2930.5	8.69958
2931.8	8.79834
2933.11	8.43546
2934.41	8.71549
2935.72	8.6322
2937.02	9.08011
2938.33	8.3683
2939.63	8.15986
2940.94	8.21745
2942.24	8.02439
2943.54	7.60895
2944.85	7.6561
2946.15	7.27097
2947.45	7.0121
2948.76	6.86472
2950.06	6.75805
2951.36	6.46741
2952.66	6.28678
2953.97	5.47465
2955.27	6.11814
2956.57	5.69849
2957.87	5.6307
2959.17	5.67746
2960.47	6.14721
2961.77	5.87663
2963.07	4.93306
2964.37	5.01243
2965.67	5.32933
2966.97	5.11084
2968.27	5.05953
2969.57	4.5152
2970.87	4.92685
2972.17	4.62143
2973.47	4.45684
2974.77	4.55957
2976.07	4.50683
2977.36	4.36833
2978.66	4.49566
2979.96	3.69214
2981.26	4.15424
2982.55	3.67297
2983.85	3.64221
2985.15	3.55617
2986.44	3.06398
2987.74	2.75579
2989.03	2.96835
2990.33	2.91411
2991.63	2.73291
2992.92	2.48047
2994.21	2.22695
2995.51	2.60459
2996.8	2.08266
2998.1	2.10822
2999.39	2.11985
3000.69	2.0477
3001.98	1.80784
3003.27	1.84866
3004.57	1.79142
3005.86	1.84595
3007.15	1.46591
3008.44	1.11343
3009.74	1.16606
3011.03	1.44151
3012.32	1.24139
3013.61	1.04148
3014.9	1.06515
3016.19	1.13105
3017.48	1.18346
3018.78	1.1805
3020.07	0.509977
3021.36	1.11853
3022.65	0.628269
3023.94	0.540381
3025.23	0.64607
3026.51	0.571218
3027.8	0.801175
3029.09	0.616719
3030.38	0.958622
3031.67	0.70741
3032.96	0.774676
3034.24	0.538464
3035.53	0.467486
3036.82	0.8505
3038.11	0.776843
3039.39	0.770534
3040.68	0.80409
3041.97	1.07003
3043.25	0.923848
3044.54	0.970244
3045.83	1.22285
3047.11	0.82095
3048.4	0.817359
3049.68	1.10201
3050.97	0.664506
3052.25	1.16919
3053.54	0.909657
3054.82	1.07246
3056.11	1.22058
3057.39	1.02672
3058.67	0.941256
3059.96	0.99169
3061.24	1.1783
3062.52	1.02537
3063.81	0.914361
3065.09	0.614228
3066.37	0.804554
3067.65	0.87324
3068.94	0.724592
3070.22	0.616389
3071.5	0.820209
3072.78	0.342956
3074.06	0.503775
3075.34	0.255969
3076.62	0.537644
3077.9	0.208391
3079.18	0.287136
3080.46	0.39397
3081.74	0.366214
3083.02	0.257915
3084.3	0.33997
3085.58	0.12342
3086.86	0.394985
3088.14	0.068676
3089.42	0.230332
3090.69	0.215044
3091.97	0.199503
3093.25	0.0211749
3094.53	0.100661
3095.8	0.193748
3097.08	-0.0657301
3098.36	0.257502
3099.63	0.282234
3100.91	0.157722
3102.19	0.344642
3103.46	0.00351143
3104.74	0.258337
3106.01	-0.109053
3107.29	0.187256
3108.56	-0.0165238
3109.84	0.213452
3111.11	-0.287001
3112.39	0.160785
3113.66	-0.0277696
3114.94	0.162952
3116.21	-0.0670724
3117.48	0.0546432
3118.76	0.148272
3120.03	0.0645595
3121.3	0.074894
3122.57	0.0574727
3123.85	0.0532746
3125.12	-0.235302
3126.39	-0.117461
3127.66	0.108766
3128.93	0.0916162
3130.21	-0.249927
3131.48	0.0574641
3132.75	0.269771
3134.02	-0.0858483
3135.29	-0.104227
3136.56	0.119638
3137.83	-0.0214205
3139.1	-0.0550017
3140.37	-0.0350266
3141.64	-0.0825043
3142.91	0.152267
3144.17	0.0243177
3145.44	0.0578222
3146.71	-0.136316
3147.98	0.072022
3149.25	-0.174883
