200.43	-0.124182
202.244	-0.104534
204.059	-0.0840406
205.873	0.0587301
207.688	0.22586
209.501	0.0278044
211.314	0.29042
213.127	0.478723
214.941	0.447458
216.753	0.609516
218.564	0.0931463
220.375	-0.0348358
222.186	-0.113619
223.999	-0.240004
225.809	0.576582
227.618	0.0155411
229.428	-0.183216
231.236	0.221059
233.045	-0.0749798
234.855	0.087615
236.663	-0.0382566
238.471	0.102658
240.278	0.100927
242.085	0.318006
243.891	0.463967
245.698	0.778914
247.503	0.489138
249.309	0.655664
251.116	0.674571
252.921	-0.105487
254.725	0.464499
256.529	0.575359
258.333	0.301157
260.136	0.2694
261.939	0.311481
263.742	0.306734
265.544	0.230558
267.346	-0.110501
269.148	0.174737
270.949	0.0495005
272.75	0.284907
274.55	0.567308
276.351	0.293774
278.15	0.765802
279.95	0.17588
281.749	0.643936
283.548	0.917222
285.346	0.347782
287.144	-0.053237
288.942	0.601478
290.739	0.536883
292.536	0.329869
294.333	0.196195
296.129	0.0638723
297.925	0.434417
299.721	0.183928
301.514	-0.162126
303.309	0.350904
305.104	0.719243
306.898	0.132302
308.692	0.260908
310.486	0.556577
312.279	0.257561
314.072	0.221997
315.862	0.90229
317.654	0.560237
319.446	0.362272
321.238	0.641815
323.029	0.516913
324.819	0.249066
326.608	0.386856
328.398	0.405172
330.188	0.42294
331.977	0.870238
333.766	0.813942
335.553	0.707853
337.341	0.384396
339.129	0.154925
340.917	0.330817
342.704	0.147289
344.489	0.585073
346.275	0.35415
348.062	0.840296
349.845	0.968549
351.631	0.64331
353.416	0.102986
355.201	0.468558
356.984	0.308157
358.768	0.0753059
360.552	-0.158221
362.333	0.226526
364.116	0.182048
365.899	0.137036
367.68	0.589884
369.462	0.163783
371.243	0.377363
373.023	-0.11992
374.804	0.943347
376.585	0.0685816
378.363	-0.190758
380.143	0.163634
381.923	0.0240555
383.7	0.826583
385.479	0.688944
387.256	-0.0819254
389.034	0.558133
390.812	0.494144
392.588	-0.179714
394.365	-0.0780249
396.14	0.376236
397.916	-0.132287
399.691	-0.241724
401.467	0.70547
403.24	0.125425
405.015	0.460788
406.788	0.114448
408.563	0.28425
410.335	-0.13312
412.109	-0.057456
413.88	0.581673
415.654	0.282754
417.424	0.735382
419.197	0.367325
420.967	0.374928
422.739	0.828365
424.508	-0.408975
426.279	0.137081
428.048	-0.139199
429.819	0.24142
431.587	0.129058
433.356	-0.123834
435.124	0.280705
436.891	0.0750351
438.66	0.24434
440.426	0.130853
442.194	0.0627189
443.96	-0.100875
445.725	0.0856438
447.492	0.153841
449.257	0.408601
451.021	-0.178092
452.787	0.053524
454.551	0.35494
456.314	0.399508
458.079	0.420607
459.842	-0.116753
461.604	0.0680914
463.368	-0.629227
465.13	0.348747
466.891	-0.297628
468.654	-0.151813
470.415	0.181689
472.175	0.446307
473.935	0.710639
475.696	0.251684
477.456	0.0469308
479.215	-0.182651
480.973	0.565268
482.733	0.0555062
484.491	0.105691
486.249	0.250656
488.006	0.187752
489.765	0.73293
491.522	0.672952
493.278	0.566751
495.034	-0.26442
496.789	0.447756
498.544	0.0832505
500.301	0.444722
502.056	0.0317521
503.81	0.416027
505.564	0.353334
507.317	0.265925
509.071	0.412429
510.825	0.134162
512.578	0.631065
514.33	0.750216
516.082	0.632909
517.833	0.561672
519.585	0.395611
521.335	0.182087
523.086	0.860775
524.836	0.71708
526.586	0.972335
528.335	0.758436
530.085	-0.0177398
531.835	0.401114
533.584	0.514539
535.332	0.416334
537.08	0.387239
538.827	0.567158
540.574	-0.163794
542.321	0.387407
544.068	0.332099
545.814	0.114255
547.56	-0.288577
549.305	0.329741
551.05	0.645835
552.795	0.429401
554.54	0.167402
556.282	0.36785
558.025	0.614349
559.769	0.423088
561.512	0.946266
563.255	0.963099
564.997	0.130003
566.739	-0.219044
568.481	-0.222671
570.223	0.37119
571.964	0.736373
573.705	-0.0211425
575.443	1.01218
577.183	0.257538
578.923	-0.427616
580.663	0.265264
582.402	0.568312
584.141	0.181534
585.879	0.253588
587.615	0.416682
589.353	0.0956917
591.09	0.257062
592.828	0.441017
594.564	0.0496602
596.299	-0.272619
598.035	0.0492849
599.771	-0.365279
601.506	0.0247245
603.242	-0.483316
604.974	0.502182
606.709	0.58958
608.443	0.0102301
610.177	0.257668
611.908	0.069397
613.642	-0.00340843
615.374	0.0389967
617.105	-0.0101037
618.837	0.16947
620.569	0.233578
622.3	0.525373
624.03	0.336005
625.761	0.466696
627.491	-0.269449
629.219	0.457191
630.949	0.500878
632.677	0.295298
634.406	0.273166
636.135	0.593214
637.861	0.0216413
639.59	-0.300846
641.318	0.309824
643.043	0.279548
644.77	0.0205927
646.495	0.626752
648.222	0.233313
649.948	0.0700598
651.672	0.0462494
653.398	0.0482454
655.121	0.212127
656.846	0.423702
658.569	0.454174
660.293	0.415954
662.015	0.559086
663.738	0.837654
665.46	-0.120133
667.183	0.314899
668.903	0.33778
670.626	0.498452
672.346	0.637938
674.067	0.52772
675.787	0.556643
677.508	0.357258
679.226	0.272443
680.947	0.853385
682.665	0.191439
684.385	0.424688
686.102	1.2322
687.821	1.07139
689.538	0.794397
691.254	0.493712
692.972	0.630169
694.688	0.696896
696.406	0.739753
698.121	0.643473
699.835	0.707298
701.552	0.908069
703.266	0.579181
704.98	0.479819
706.695	0.816214
708.409	0.738975
710.121	0.821929
711.836	1.04179
713.548	0.82642
715.26	0.679823
716.973	1.0814
718.685	0.501452
720.396	0.67479
722.108	0.802407
723.818	1.2484
725.528	1.21615
727.238	1.04742
728.949	0.946702
730.658	0.89115
732.367	1.19776
734.075	0.892694
735.785	0.475262
737.493	0.894422
739.2	0.771913
740.907	1.43937
742.614	1.16077
744.322	1.60411
746.028	1.17062
747.734	1.14358
749.439	1.00522
751.144	1.20534
752.849	1.2941
754.555	1.02409
756.26	1.29529
757.963	1.09518
759.667	1.41425
761.37	1.2838
763.073	1.35668
764.775	1.45204
766.477	1.41101
768.179	1.27796
769.883	1.14298
771.584	1.68467
773.285	1.72764
774.986	1.52144
776.686	0.818288
778.386	1.72154
780.085	1.67648
781.785	0.9989
783.484	1.3168
785.182	2.31306
786.881	1.3154
788.579	1.60535
790.276	2.75178
791.974	2.19898
793.671	1.93916
795.367	1.31864
797.064	2.32271
798.76	1.52494
800.456	2.10275
802.151	1.66883
803.846	1.55072
805.541	1.94962
807.234	1.85314
808.928	1.89047
810.622	1.56766
812.315	2.4554
814.008	1.59355
815.701	2.0985
817.394	1.88677
819.086	1.56371
820.778	1.97822
822.468	1.76762
824.159	1.55801
825.85	1.63951
827.541	2.34638
829.231	1.91953
830.921	1.91852
832.609	2.18731
834.298	1.87868
835.987	1.86054
837.676	1.73064
839.364	1.64427
841.051	1.73517
842.738	1.60155
844.426	1.66852
846.113	1.49019
847.798	1.31319
849.484	1.98818
851.171	1.72585
852.857	1.95781
854.54	2.12375
856.226	1.41389
857.911	1.39867
859.593	1.15701
861.278	1.34134
862.961	1.54703
864.645	1.30106
866.327	0.873778
868.01	1.3026
869.692	1.3027
871.373	1.18973
873.055	1.14423
874.735	1.12119
876.416	1.32381
878.097	1.32335
879.776	0.84877
881.457	1.16391
883.135	0.84637
884.815	0.798862
886.495	1.06623
888.172	1.26449
889.851	1.34849
891.528	1.25085
893.206	1.28734
894.882	0.985255
896.56	0.750261
898.237	1.03143
899.912	1.24393
901.589	0.738282
903.263	1.218
904.94	1.38344
906.614	1.48169
908.289	0.354024
909.962	0.743925
911.635	1.62311
913.31	0.83424
914.982	1.24618
916.656	0.925331
918.328	1.15909
920.001	0.750354
921.672	1.0507
923.345	1.41773
925.015	1.67515
926.685	1.5806
928.357	1.04612
930.026	0.755692
931.698	1.10575
933.366	0.749989
935.035	1.2988
936.705	1.18616
938.373	1.05218
940.041	0.96327
941.71	1.36063
943.377	1.47193
945.044	1.25209
946.712	1.29611
948.378	1.18408
950.044	1.29117
951.709	0.867641
953.376	1.59124
955.041	1.03683
956.706	0.572913
958.372	0.728977
960.036	1.15226
961.699	0.804306
963.362	1.0968
965.027	1.16712
966.69	0.792785
968.352	0.659427
970.014	1.05534
971.676	1.22917
973.339	1.2927
975	0.826673
976.661	1.24671
978.322	0.274477
979.982	0.463965
981.642	0.653266
983.303	0.896927
984.962	0.895521
986.621	0.604689
988.28	0.666574
989.938	0.749494
991.596	0.367668
993.254	0.957962
994.911	0.664649
996.57	0.87916
998.227	0.586273
999.884	1.46143
1001.54	1.12395
1003.2	1.11664
1004.85	0.845159
1006.51	0.595915
1008.16	1.02785
1009.82	0.735258
1011.47	0.465327
1013.12	0.700155
1014.78	0.124574
1016.43	0.950984
1018.08	0.682908
1019.74	0.590674
1021.39	0.390002
1023.04	0.824178
1024.69	0.909278
1026.34	0.317417
1028	0.468586
1029.65	1.03429
1031.3	0.441206
1032.95	0.174745
1034.6	0.736355
1036.25	0.554825
1037.9	0.133253
1039.54	0.430578
1041.19	0.401664
1042.84	0.0911932
1044.49	0.412441
1046.14	0.213651
1047.78	0.407292
1049.43	0.471879
1051.08	0.602621
1052.72	0.560251
1054.37	0.670262
1056.02	0.280416
1057.66	0.194518
1059.31	0.282148
1060.95	0.434525
1062.6	0.477571
1064.24	0.541615
1065.88	0.452626
1067.53	0.775737
1069.17	0.0767221
1070.81	0.28983
1072.45	0.220442
1074.1	-0.043828
1075.74	0.386948
1077.38	0.428166
1079.02	0.383601
1080.66	0.751642
1082.3	0.339036
1083.94	0.706348
1085.58	0.140125
1087.22	0.656085
1088.86	0.628469
1090.5	0.556173
1092.14	0.115538
1093.78	0.38798
1095.42	0.465825
1097.05	0.177707
1098.69	0.364955
1100.33	0.208866
1101.96	0.527803
1103.6	0.138015
1105.24	0.24411
1106.87	-0.230081
1108.51	0.17732
1110.14	0.390244
1111.78	-0.128947
1113.41	0.296284
1115.05	-0.181622
1116.68	0.070035
1118.31	0.557205
1119.95	0.401538
1121.58	-0.0315409
1123.21	0.606744
1124.85	0.881582
1126.48	0.258625
1128.11	0.44918
1129.74	-0.0653572
1131.37	0.168925
1133	-0.152424
1134.63	-0.38832
1136.26	-0.133054
1137.89	0.356362
1139.52	0.225099
1141.15	0.30663
1142.78	0.344975
1144.41	0.234066
1146.04	-0.0894108
1147.66	0.46183
1149.29	-0.200977
1150.92	0.649215
1152.55	0.0296535
1154.17	0.304282
1155.8	-0.187757
1157.43	0.575674
1159.05	0.147814
1160.68	0.188638
1162.3	0.506712
1163.93	0.59167
1165.55	0.421898
1167.17	0.188135
1168.8	0.0173521
1170.42	0.567975
1172.05	0.0968742
1173.67	0.00705051
1175.29	-0.126058
1176.91	0.397781
1178.54	-0.0958281
1180.16	-0.0378418
1181.78	0.0841951
1183.4	0.544863
1185.02	0.244366
1186.64	-0.0564919
1188.26	0.0427256
1189.88	-0.281315
1191.5	0.0254993
1193.12	0.0780649
1194.74	0.0668201
1196.36	-0.0701847
1197.97	-0.0595732
1199.59	0.558812
1201.21	0.425613
1202.83	0.503558
1204.44	0.541778
1206.06	0.143558
1207.68	-0.00312901
1209.29	0.538815
1210.91	0.725405
1212.52	0.201632
1214.14	0.760133
1215.75	0.566441
1217.37	0.371581
1218.98	-0.0315466
1220.59	-0.0395374
1222.21	0.637351
1223.82	0.858137
1225.43	-0.0796661
1227.05	0.329947
1228.66	-0.335304
1230.27	0.0553751
1231.88	0.426058
1233.49	0.756219
1235.1	0.818662
1236.72	0.6134
1238.33	0.822371
1239.94	0.452996
1241.55	0.76615
1243.16	0.49991
1244.76	0.68817
1246.37	0.585946
1247.98	0.358742
1249.59	0.772356
1251.2	0.916664
1252.8	0.85425
1254.41	0.77174
1256.02	0.793525
1257.62	0.857689
1259.23	0.571057
1260.84	0.636863
1262.44	0.578856
1264.05	0.541543
1265.66	0.773279
1267.26	0.631449
1268.86	0.219279
1270.47	0.677031
1272.07	1.19616
1273.67	0.677762
1275.28	0.718354
1276.88	0.447332
1278.48	0.507263
1280.09	0.960063
1281.69	1.20523
1283.29	0.829636
1284.89	0.268664
1286.49	0.618373
1288.09	0.596685
1289.69	0.885719
1291.29	0.927145
1292.89	1.25776
1294.49	0.513439
1296.09	0.71845
1297.69	0.860084
1299.29	1.16525
1300.89	1.1801
1302.49	0.967275
1304.08	1.16561
1305.68	1.13678
1307.28	0.286063
1308.88	1.22176
1310.47	0.802859
1312.07	0.978837
1313.66	0.889181
1315.26	0.39182
1316.85	0.916911
1318.45	1.15602
1320.04	1.39468
1321.64	1.12293
1323.23	1.44054
1324.83	1.1868
1326.42	1.33849
1328.01	1.2257
1329.61	0.668211
1331.2	1.16497
1332.79	1.44032
1334.38	0.869143
1335.97	1.18794
1337.56	0.679975
1339.16	0.857381
1340.75	0.529668
1342.34	0.784373
1343.93	0.976642
1345.52	0.565226
1347.11	0.997034
1348.7	1.00861
1350.29	1.4625
1351.87	0.397888
1353.46	0.515568
1355.05	1.47368
1356.64	1.13277
1358.22	0.512033
1359.81	0.370208
1361.4	1.38528
1362.98	1.14183
1364.57	0.49963
1366.16	1.13352
1367.74	0.791595
1369.33	1.02825
1370.91	0.668919
1372.5	0.84811
1374.08	0.351689
1375.67	1.34818
1377.25	0.215635
1378.83	0.475595
1380.41	0.376586
1382	0.535179
1383.58	0.294917
1385.16	0.749742
1386.74	0.428932
1388.33	-0.229043
1389.91	0.44396
1391.49	0.462361
1393.07	0.56074
1394.65	0.262724
1396.23	0.480255
1397.81	0.7764
1399.39	0.31854
1400.97	0.0979872
1402.55	0.589793
1404.13	0.88319
1405.7	-0.02948
1407.28	0.146421
1408.86	1.01439
1410.44	0.914378
1412.01	0.636683
1413.59	0.753484
1415.17	0.376167
1416.74	0.432386
1418.32	0.764149
1419.89	0.938214
1421.47	0.620735
1423.04	0.974044
1424.62	0.856229
1426.19	0.404909
1427.77	0.938158
1429.34	1.29407
1430.91	1.19651
1432.49	0.684742
1434.06	0.978989
1435.63	1.07601
1437.2	0.937198
1438.78	0.936659
1440.35	1.34968
1441.92	1.40972
1443.49	0.880783
1445.06	1.49208
1446.63	1.29774
1448.2	1.61458
1449.77	1.34196
1451.34	1.52191
1452.91	1.30906
1454.48	1.6079
1456.05	1.33626
1457.62	1.20173
1459.18	1.49907
1460.75	0.515785
1462.32	1.26264
1463.89	0.886639
1465.45	1.35523
1467.02	0.997948
1468.59	0.896575
1470.15	0.874536
1471.72	0.480715
1473.28	-0.0100822
1474.85	0.852974
1476.41	0.0495405
1477.98	0.932393
1479.54	0.795668
1481.1	0.482497
1482.67	0.522089
1484.23	0.444002
1485.79	0.483201
1487.36	0.169241
1488.92	-0.0476475
1490.48	0.0864654
1492.04	0.316455
1493.61	-0.178393
1495.17	0.340939
1496.73	0.0982113
1498.29	0.0115871
1499.85	0.255982
1501.41	0.345341
1502.97	0.513051
1504.53	0.0611629
1506.09	0.0168386
1507.65	0.378239
1509.2	0.274434
1510.76	0.227807
1512.32	0.0456891
1513.88	0.171659
1515.43	-0.125439
1516.99	0.0586081
1518.55	0.0318952
1520.1	0.120654
1521.66	0.209398
1523.22	0.431485
1524.77	0.213334
1526.33	0.319035
1527.88	0.27138
1529.44	-0.1569
1530.99	0.346391
1532.54	0.298806
1534.1	-0.145624
1535.65	0.206258
1537.21	0.425843
1538.76	0.607804
1540.31	0.0543237
1541.86	0.255527
1543.42	-0.12715
1544.97	0.0548058
1546.52	0.668227
1548.07	0.86747
1549.62	0.953806
1551.17	1.04011
1552.72	0.958343
1554.27	0.933603
1555.82	-0.023735
1557.37	0.682798
1558.92	0.382727
1560.47	0.644032
1562.02	0.291017
1563.56	0.162764
1565.11	-0.0396857
1566.66	0.560344
1568.21	0.637768
1569.75	0.397578
1571.3	0.735715
1572.85	0.345622
1574.39	0.702099
1575.94	0.834595
1577.49	0.724583
1579.03	0.857606
1580.57	1.15923
1582.12	0.69592
1583.66	1.09243
1585.21	0.81707
1586.75	0.485822
1588.3	1.08963
1589.84	0.683336
1591.38	0.950246
1592.92	1.1795
1594.47	0.846726
1596.01	0.963452
1597.55	1.06186
1599.09	1.1234
1600.63	0.904233
1602.17	1.00431
1603.71	1.08571
1605.25	0.790897
1606.79	1.17129
1608.33	0.835957
1609.87	0.40473
1611.41	1.13673
1612.95	0.796024
1614.49	0.510901
1616.03	0.638403
1617.57	0.766108
1619.1	0.913361
1620.64	0.612269
1622.18	0.743129
1623.72	0.350443
1625.25	1.11847
1626.79	0.313547
1628.32	0.761533
1629.86	0.609623
1631.39	0.737346
1632.93	0.64044
1634.46	0.338546
1636	0.16821
1637.53	0.576891
1639.07	0.370545
1640.6	0.723496
1642.13	0.721733
1643.67	0.663221
1645.2	0.696841
1646.73	0.952806
1648.26	0.929409
1649.8	1.31485
1651.33	0.902687
1652.86	0.547658
1654.39	1.06526
1655.92	0.786055
1657.45	0.821984
1658.98	0.746138
1660.51	1.09508
1662.04	0.942891
1663.57	0.734499
1665.1	0.858422
1666.63	1.14852
1668.16	0.756727
1669.68	0.882756
1671.21	1.04676
1672.74	1.32212
1674.27	0.695413
1675.79	1.06301
1677.32	0.693558
1678.85	0.856988
1680.37	0.945827
1681.9	0.0784516
1683.42	0.442187
1684.95	0.566948
1686.47	0.52678
1688	0.377059
1689.52	0.392691
1691.05	0.500063
1692.57	0.424388
1694.09	0.293871
1695.62	0.199913
1697.14	0.398207
1698.66	0.303817
1700.18	0.318696
1701.71	0.424318
1703.23	0.21951
1704.75	0.815799
1706.27	0.33723
1707.79	0.604577
1709.31	-0.000455856
1710.83	-0.0236545
1712.35	-0.0285387
1713.87	0.16601
1715.39	-0.363824
1716.91	-0.02461
1718.43	0.422374
1719.95	-0.160742
1721.47	0.375896
1722.99	-0.458057
1724.5	0.187319
1726.02	-0.157418
1727.54	-0.302796
1729.06	0.182517
1730.57	0.163457
1732.09	0.249899
1733.61	0.106671
1735.12	0.108522
1736.64	-0.0679793
1738.15	0.230536
1739.67	0.434151
1741.18	0.438009
1742.7	0.543743
1744.21	0.347894
1745.72	0.0587931
1747.24	0.366064
1748.75	0.152835
1750.26	0.0781693
1751.77	-0.0517163
1753.29	-0.110267
1754.8	0.134079
1756.31	0.201673
1757.82	0.0507965
1759.33	-0.0725799
1760.84	-0.30381
1762.36	0.0519214
1763.87	0.0940037
1765.38	-0.265635
1766.89	-0.129096
1768.4	0.0634003
1769.91	0.633256
1771.41	-0.0530472
1772.92	0.0521431
1774.43	0.0616493
1775.94	-0.107547
1777.45	-0.346612
1778.95	0.205632
1780.46	-0.0433731
1781.97	-0.377872
1783.48	-0.203252
1784.98	0.122277
1786.49	-0.217529
1787.99	-0.0350156
1789.5	0.254811
1791.01	0.026762
1792.51	0.112338
1794.01	-0.263725
1795.52	0.143711
1797.02	0.0725827
1798.53	0.306252
1800.03	0.20037
1801.53	0.149977
1803.04	0.229185
1804.54	-0.147521
1806.04	0.320011
1807.54	0.277212
1809.05	0.0292892
1810.55	0.0418587
1812.05	0.349437
1813.55	0.0261135
1815.05	0.443431
1816.55	-0.155206
1818.05	0.0164399
1819.55	0.184955
1821.05	-0.374018
1822.55	0.0830221
1824.05	-0.0220628
1825.55	0.184897
1827.05	0.0639143
1828.55	0.327173
1830.04	0.269738
1831.54	-0.069942
1833.04	-0.06709
1834.54	0.117568
1836.03	0.0488129
1837.53	0.111925
1839.03	0.056695
1840.52	0.0183501
1842.02	0.150885
1843.51	0.1802
1845.01	-0.092361
1846.5	0.0579681
1848	0.0878663
1849.49	0.102409
1850.99	0.0401201
1852.48	0.00303173
1853.97	0.143224
1855.47	-0.150856
1856.96	0.0813246
1858.45	0.0506415
1859.94	0.0551925
1861.44	0.0225472
1862.93	0.125886
1864.42	-0.135118
1865.91	-0.390091
1867.4	0.26201
1868.89	0.214058
1870.38	0.194226
1871.87	0.155813
1873.36	0.0444932
1874.85	0.149684
1876.34	0.16499
1877.83	0.180988
1879.32	0.213634
1880.81	0.128667
1882.3	-0.123185
1882.57	-0.175433
1884.07	0.0850034
1885.56	0.257467
1887.06	0.0458717
1888.55	0.19965
1890.04	0.162069
1891.54	-0.0311437
1893.03	0.33347
1894.52	0.334444
1896.02	-0.0631905
1897.51	0.565818
1899	0.0642695
1900.49	0.292387
1901.98	0.501718
1903.47	0.18771
1904.96	0.324679
1906.45	0.443487
1907.94	0.492707
1909.43	0.299428
1910.92	0.228565
1912.41	0.141156
1913.9	0.435808
1915.39	0.36627
1916.88	-0.119611
1918.37	0.416892
1919.85	0.103706
1921.34	-0.140055
1922.83	0.240041
1924.32	0.170591
1925.8	0.656085
1927.29	0.121093
1928.78	0.244483
1930.26	0.0388384
1931.75	0.248094
1933.23	0.179049
1934.72	0.108546
1936.2	0.538429
1937.69	0.223339
1939.17	0.322961
1940.66	0.198254
1942.14	0.177967
1943.63	0.055088
1945.11	0.0882077
1946.59	-0.0680223
1948.07	0.103071
1949.56	0.118375
1951.04	0.132834
1952.52	0.387397
1954	0.280053
1955.48	-0.102129
1956.96	-0.17438
1958.45	-0.0400429
1959.93	0.472142
1961.41	0.126996
1962.89	0.107947
1964.37	0.0373521
1965.85	-0.0678506
1967.32	0.237247
1968.8	-0.0572109
1970.28	0.024272
1971.76	0.0883412
1973.24	-0.00133467
1974.72	0.0968103
1976.19	0.467669
1977.67	0.0376577
1979.15	0.323172
1980.63	0.285101
1982.1	0.33192
1983.58	0.242527
1985.05	-0.135565
1986.53	-0.00448704
1988	0.177219
1989.48	-0.58937
1990.95	-0.339015
1992.43	0.199293
1993.9	0.0278821
1995.38	0.398047
1996.85	0.379778
1998.32	0.260144
1999.8	-0.180542
2001.27	0.0704947
2002.74	-0.100768
2004.22	0.0483327
2005.69	-0.240514
2007.16	0.381016
2008.63	0.110513
2010.1	0.581606
2011.57	0.53118
2013.04	0.194667
2014.51	0.0261674
2015.98	0.328164
2017.45	0.107839
2018.92	-0.432389
2020.39	0.254009
2021.86	0.234281
2023.33	0.265219
2024.8	-0.0219803
2026.27	0.312618
2027.74	0.0948462
2029.2	0.247326
2030.67	0.367419
2032.14	0.0688496
2033.61	-0.195958
2035.07	0.227553
2036.54	0.0966563
2038.01	0.200483
2039.47	0.320833
2040.94	0.15542
2042.4	-0.00974655
2043.87	0.397499
2045.33	-0.0860248
2046.8	0.221901
2048.26	0.0418787
2049.72	0.0804744
2051.19	0.455472
2052.65	0.323406
2054.12	0.105433
2055.58	-0.0465007
2057.04	0.0871067
2058.5	0.236827
2059.97	-0.00109053
2061.43	0.283476
2062.89	0.417056
2064.35	0.181186
2065.81	0.316432
2067.27	-0.0356684
2068.73	0.235399
2070.19	0.405784
2071.65	0.290055
2073.11	0.578271
2074.57	0.495852
2076.03	0.463646
2077.49	0.0774765
2078.95	0.280373
2080.41	0.348149
2081.87	0.550122
2083.32	0.801934
2084.78	0.44716
2086.24	0.46206
2087.7	0.00563431
2089.15	0.171096
2090.61	0.420208
2092.07	0.249292
2093.52	0.0113564
2094.98	-0.0253
2096.43	0.54102
2097.89	0.0843949
2099.34	0.414486
2100.8	0.0916433
2102.25	0.0368428
2103.71	0.0161948
2105.16	0.297016
2106.61	-0.322154
2108.07	0.194006
2109.52	0.376669
2110.97	-0.00801373
2112.43	0.106391
2113.88	0.0527706
2115.33	-0.118519
2116.78	0.291622
2118.23	0.468801
2119.68	0.2485
2121.13	0.47797
2122.59	0.277684
2124.04	0.0289173
2125.49	0.493685
2126.94	0.858648
2128.39	0.211457
2129.83	0.16003
2131.28	0.206976
2132.73	0.236683
2134.18	0.167093
2135.63	0.247034
2137.08	0.261993
2138.53	0.592443
2139.97	0.379066
2141.42	0.249613
2142.87	0.352535
2144.31	0.224442
2145.76	0.443898
2147.21	0.216231
2148.65	0.269449
2150.1	0.123192
2151.54	0.688551
2152.99	0.424697
2154.43	0.690371
2155.88	-0.0218101
2157.32	0.0447755
2158.77	0.376952
2160.21	0.229806
2161.65	0.332556
2163.1	0.702137
2164.54	0.293649
2165.98	0.416532
2167.43	0.473029
2168.87	0.428972
2170.31	-0.0323815
2171.75	0.48586
2173.19	0.303936
2174.64	0.636585
2176.07	0.33672
2177.52	0.303173
2178.96	0.436498
2180.4	0.021955
2181.84	0.372883
2183.28	0.225467
2184.72	0.593828
2186.15	0.463301
2187.59	0.249542
2189.03	0.668147
2190.47	0.387766
2191.91	0.523274
2193.35	0.375144
2194.78	0.459008
2196.22	0.657868
2197.66	0.339162
2199.09	0.61799
2200.53	0.280844
2201.97	0.32594
2203.4	0.271975
2204.84	0.500827
2206.27	0.663995
2207.71	0.0819635
2209.14	0.60972
2210.58	0.490833
2212.01	0.106595
2213.45	0.532184
2214.88	0.44505
2216.31	0.0284281
2217.75	0.553535
2219.18	0.271145
2220.61	0.0390944
2222.05	0.697225
2223.48	0.481127
2224.91	0.494568
2226.34	0.654636
2227.78	0.451349
2229.21	0.132423
2230.64	0.174454
2232.07	0.0687551
2233.5	0.454555
2234.93	0.251523
2236.36	0.458268
2237.79	0.42114
2239.22	-0.0548902
2240.65	0.058248
2242.08	0.189083
2243.5	0.190416
2244.93	0.224639
2246.36	0.584522
2247.79	0.127549
2249.22	0.255943
2250.64	-0.155216
2252.07	0.425749
2253.5	0.338278
2254.92	0.332476
2256.35	0.0194516
2257.78	0.29286
2259.2	0.260212
2260.63	0.327329
2262.05	0.347798
2263.48	0.808115
2264.9	0.212863
2266.33	0.0231199
2267.75	0.222969
2269.18	0.471044
2270.6	-0.209298
2272.02	0.151722
2273.45	0.219612
2274.87	0.0758305
2276.29	0.143973
2277.71	0.179691
2279.14	0.0361476
2280.56	0.120771
2281.98	0.237955
2283.4	0.191976
2284.82	0.0807343
2286.24	0.3124
2287.66	0.315911
2289.08	0.254457
2290.5	0.258651
2291.92	0.132297
2293.34	0.234895
2294.76	0.403006
2296.18	0.211072
2297.6	-0.0138226
2299.02	0.170703
2300.44	0.142474
2301.86	0.065258
2303.27	-0.0774317
2304.69	-0.105242
2306.11	0.441675
2307.53	0.331577
2308.94	0.22092
2310.36	-0.383639
2311.78	0.0309501
2313.19	0.445774
2314.61	0.630785
2316.02	0.24024
2317.44	0.245387
2318.85	0.102535
2320.27	0.0582762
2321.68	0.425575
2323.1	0.296351
2324.51	0.363185
2325.92	0.675556
2327.34	0.837802
2328.75	0.455371
2330.16	0.304152
2331.58	0.0879903
2332.99	-0.373955
2334.4	0.382602
2335.81	0.184885
2337.23	-0.0953598
2338.64	0.00190163
2340.05	-0.131898
2341.46	-0.118502
2342.87	0.189863
2344.28	0.317405
2345.69	-0.0630341
2347.1	0.0649719
2348.51	0.471106
2349.92	0.369287
2351.33	0.185205
2352.74	0.147574
2354.15	-0.0376143
2355.55	0.0703979
2356.96	0.340734
2358.37	0.155067
2359.78	0.311079
2361.19	-0.117419
2362.59	-0.0100155
2364	0.0160851
2365.41	-0.071157
2366.81	-0.174214
2368.22	0.320781
2369.62	0.25117
2371.03	-0.0589952
2372.44	0.0189538
2373.84	0.210358
2375.24	0.0316911
2376.65	0.0298314
2378.05	0.0109987
2379.46	-0.0251503
2380.86	0.130029
2382.26	-0.0850601
2383.67	0.00390911
2385.07	-0.00347948
2386.47	-0.0424685
2387.88	-0.463632
2389.28	0.376515
2390.68	0.101123
2392.08	0.0659142
2393.48	0.206591
2394.89	-0.129291
2396.29	0.0603042
2397.69	0.123147
2399.09	-0.00423098
2400.49	-0.131149
2401.89	-0.0354066
2403.29	-0.257282
2404.69	0.378033
2406.09	0.266236
2407.48	0.106134
2408.88	0.151698
2410.28	-0.0883565
2411.68	0.131468
2413.08	0.335951
2414.48	0.0822649
2415.87	0.130672
2417.27	0.148517
2418.67	0.10378
2420.06	-0.00403166
2421.46	0.0305796
2422.86	0.223336
2424.25	0.225786
2425.65	0.133223
2427.04	0.00937462
2428.44	0.155707
2429.83	0.334649
2431.23	0.0541773
2432.62	-0.115314
2434.02	0.445171
2435.41	0.226636
2436.81	0.245095
2438.2	0.0716162
2439.59	0.0242033
2440.99	0.103118
2442.38	0.00693035
2443.77	0.323153
2445.16	-0.043057
2446.56	0.034843
2447.95	-0.0934434
2449.34	-0.047379
2450.73	-0.159494
2452.12	0.298704
2453.51	-0.0971594
2454.9	0.0299191
2456.29	0.410636
2457.68	0.0797639
2459.07	-0.203749
2460.46	0.334683
2461.85	-0.0289741
2463.24	0.0968986
2464.63	0.0326195
2466.02	-0.0318413
2467.4	-0.175237
2468.79	0.0916843
2470.18	0.0112443
2471.57	0.072371
2472.95	0.27464
2474.34	0.176904
2475.73	0.0158606
2477.12	-0.129504
2478.5	-0.274658
2479.89	0.0513043
2481.27	0.392582
2482.66	0.0125866
2484.04	-0.28891
2485.43	0.160113
2486.81	0.0917497
2488.2	0.194278
2489.58	0.031024
2490.97	0.0704141
2492.35	0.0635238
2493.73	-0.0200815
2495.12	-0.521228
2496.5	0.172919
2497.88	0.278169
2499.27	-0.142755
2500.65	-0.0529599
2502.03	0.113333
2503.41	-0.277311
2504.79	-0.128042
2506.17	0.34398
2507.56	-0.308707
2508.94	0.223893
2510.32	-0.365321
2511.7	-0.185738
2513.08	0.162748
2514.46	0.235696
2515.84	-0.486605
2517.22	-0.136632
2518.59	0.121658
2519.97	-0.414766
2521.35	0.041873
2522.73	0.0548186
2524.11	0.128071
2525.49	0.0177512
2526.86	0.166277
2528.24	0.132351
2529.62	-0.0830574
2530.99	0.189421
2532.37	0.265604
2533.75	-0.112871
2535.12	-0.126105
2536.5	0.301197
2537.88	0.105057
2539.25	0.15119
2540.63	-0.395494
2542	0.317631
2543.38	-0.0466866
2544.75	0.0601387
2546.12	-0.0292144
2547.5	0.231321
2548.87	0.219545
2550.24	0.0408983
2551.62	-0.0926685
2552.99	-0.090394
2554.36	-0.0282359
2555.74	0.200079
2557.11	0.0486579
2558.48	0.0337048
2559.85	0.0341554
2561.22	0.171467
2562.59	-0.2969
2563.96	-0.219188
2565.34	0.0407186
2566.71	0.0886831
2568.08	0.136741
2569.45	-0.0879884
2570.82	-0.221782
2572.18	0.326547
2573.55	0.101941
2574.92	0.286704
2576.29	-0.0136151
2577.66	0.0801821
2579.03	0.370939
2580.4	0.0548949
2581.77	0.254069
2583.13	-0.123211
2584.5	0.0906415
2585.87	0.092207
2587.23	-0.163773
2588.6	0.23214
2589.97	0.188622
2591.33	-0.0368328
2592.7	0.0101151
2594.06	-0.0193381
2595.43	0.510699
2596.79	0.222087
2598.16	0.16004
2599.52	0.00706911
2600.89	0.0810347
2602.25	-0.176889
2603.62	0.0339317
2604.98	0.1696
2606.34	0.00364971
2607.71	0.259757
2609.07	0.0628037
2610.43	-0.149969
2611.79	-0.0173302
2613.16	0.114167
2614.52	0.139651
2615.88	-0.375278
2617.24	-0.0495191
2618.6	0.216215
2619.96	0.377398
2621.32	0.210029
2622.68	0.0433493
2624.04	0.0413423
2625.4	0.307901
2626.76	-0.112038
2628.12	0.0942035
2629.48	-0.131883
2630.84	-0.0750909
2632.2	0.323448
2633.56	-0.00650215
2634.92	-0.18751
2636.28	-0.0271511
2637.63	0.162591
2638.99	0.307673
2640.35	-0.139087
2641.71	-0.0231833
2643.06	-0.173115
2644.42	0.149708
2645.77	0.103226
2647.13	0.321828
2648.49	0.082921
2649.84	0.0645127
2651.2	0.192609
2652.55	0.232106
2653.91	-0.0950203
2655.26	0.0334735
2656.62	0.353054
2657.97	-9.05991e-005
2659.33	0.0575042
2660.68	-0.00159359
2662.03	0.158464
2663.39	0.142603
2664.74	-0.0198469
2666.09	-0.12431
2667.44	0.0624981
2668.8	0.190713
2670.15	0.202576
2671.5	0.0549488
2672.85	-0.0919437
2674.2	-0.165541
2675.55	-0.0353894
2676.91	0.00806761
2678.26	-0.0494828
2679.61	-0.0338125
2680.96	-0.00279856
2682.31	0.0726862
2683.66	0.134659
2685	0.342504
2686.35	0.231646
2687.7	0.120561
2689.05	-0.0350842
2690.4	-0.00335073
2691.75	0.143053
2693.1	0.0560279
2694.44	-0.466661
2695.79	0.0980239
2697.14	-0.351314
2698.49	-0.234545
2699.83	0.100677
2701.18	0.292501
2702.52	0.0221276
2703.87	-0.00124836
2705.22	0.439696
2706.56	0.271917
2707.91	0.118288
2709.25	0.283583
2710.6	0.318013
2711.94	0.0617242
2713.29	0.153921
2714.63	-0.0445733
2715.97	0.382
2717.32	0.19785
2718.66	0.406207
2720.01	0.425199
2721.35	0.021781
2722.69	0.738619
2724.03	0.276157
2725.38	-0.0411077
2726.72	0.398214
2728.06	0.211424
2729.4	0.300982
2730.74	0.244913
2732.08	0.0870104
2733.42	0.0892458
2734.76	0.208002
2736.1	0.137833
2737.44	0.111427
2738.78	0.201356
2740.12	0.145666
2741.46	0.424034
2742.8	0.323824
2744.14	0.382961
2745.48	0.267238
2746.82	0.180317
2748.16	0.0643101
2749.49	0.282157
2750.83	0.180938
2752.17	0.00753069
2753.51	0.0373368
2754.84	0.357031
2756.18	0.372499
2757.52	-0.0028367
2758.85	0.331563
2760.19	0.260905
2761.53	-0.0119143
2762.86	0.17874
2764.2	0.268349
2765.53	0.0975056
2766.87	0.027596
2768.2	0.130558
2769.54	0.217983
2770.87	0.231918
2772.2	0.360277
2773.54	0.588613
2774.87	0.181819
2776.2	0.279852
2777.54	0.234118
2778.87	0.016356
2780.2	0.2448
2781.53	-0.144292
2782.87	-0.0161624
2784.2	-0.0459876
2785.53	0.239522
2786.86	0.309997
2788.19	-0.191757
2789.52	0.108841
2790.85	0.252579
2792.18	-0.289449
2793.51	0.269846
2794.84	0.328714
2796.17	0.101523
2797.5	-0.125958
2798.83	0.345923
2800.16	0.0606847
2801.49	0.0608034
2802.82	0.203356
2804.15	-0.153201
2805.47	0.245137
2806.8	0.45748
2808.13	0.285012
2809.46	0.553038
2810.78	-0.116537
2812.11	0.180315
2813.44	-0.0328665
2814.76	0.464148
2816.09	0.16829
2817.42	0.000956535
2818.74	0.188416
2820.07	0.0215368
2821.39	0.038569
2822.72	0.295991
2824.04	0.11363
2825.37	0.256877
2826.69	0.230169
2828.02	0.331313
2829.34	0.376259
2830.66	-0.158819
2831.99	0.325498
2833.31	0.370926
2834.63	0.28871
2835.96	0.347646
2837.28	0.632529
2838.6	0.49257
2839.92	0.762636
2841.24	0.608513
2842.57	0.864721
2843.89	0.796313
2845.21	0.869823
2846.53	1.04275
2847.85	1.04637
2849.17	1.33269
2850.49	1.0958
2851.81	1.12706
2853.13	1.12964
2854.45	1.17431
2855.77	1.52965
2857.09	1.65885
2858.41	1.13833
2859.72	1.73361
2861.04	1.39663
2862.36	1.49715
2863.68	1.4703
2865	1.48559
2866.31	2.02277
2867.63	1.81246
2868.95	2.01149
2870.26	1.99932
2871.58	1.97318
2872.9	2.32732
2874.21	2.25798
2875.53	2.42726
2876.84	2.46877
2878.16	2.41107
2879.47	2.10008
2880.79	2.28163
2882.1	2.56201
2883.42	2.35148
2884.73	2.11377
2886.05	2.15739
2887.36	2.28523
2888.67	2.23023
2889.99	1.92214
2891.3	2.31469
2892.61	2.38407
2893.92	2.28515
2895.24	2.63469
2896.55	2.35474
2897.86	1.99183
2899.17	2.00759
2900.48	2.4436
2901.79	2.29237
2903.11	2.7148
2904.42	2.77361
2905.73	2.60883
2907.04	2.73823
2908.35	2.60247
2909.66	2.84507
2910.97	2.78031
2912.27	3.23338
2913.58	3.15399
2914.89	2.58343
2916.2	3.18752
2917.51	3.42626
2918.82	2.92257
2920.13	3.1184
2921.43	3.5523
2922.74	3.49769
2924.05	3.47213
2925.35	3.67109
2926.66	3.54899
2927.97	3.46881
2929.27	3.41626
2930.58	4.02032
2931.89	3.49162
2933.19	3.98317
2934.5	3.56611
2935.8	4.0017
2937.11	3.78052
2938.41	3.68525
2939.72	3.52031
2941.02	3.50946
2942.32	3.03808
2943.63	3.12652
2944.93	3.2859
2946.24	2.66304
2947.54	3.04746
2948.84	2.98406
2950.14	2.8357
2951.45	2.65792
2952.75	2.46469
2954.05	2.66248
2955.35	2.28599
2956.65	2.41411
2957.95	2.52968
2959.26	2.73128
2960.56	2.66892
2961.86	2.34162
2963.16	2.39314
2964.46	2.54252
2965.76	2.42407
2967.06	2.30422
2968.36	1.97239
2969.66	2.18822
2970.96	2.47436
2972.25	2.43723
2973.55	2.32994
2974.85	1.75799
2976.15	2.24122
2977.45	2.00544
2978.74	2.13438
2980.04	1.82553
2981.34	1.74098
2982.64	1.3185
2983.93	1.69793
2985.23	1.97949
2986.52	1.65782
2987.82	2.12417
2989.12	1.46706
2990.41	1.35809
2991.71	1.30489
2993	1.39138
2994.3	1.18175
2995.59	1.19607
2996.89	1.37824
2998.18	1.05484
2999.48	0.942256
3000.77	1.04043
3002.06	0.844563
3003.36	0.83123
3004.65	0.747871
3005.94	0.972372
3007.23	0.566251
3008.53	0.789395
3009.82	0.801805
3011.11	0.687805
3012.4	0.54566
3013.69	0.431575
3014.99	0.540939
3016.28	0.385936
3017.57	0.342985
3018.86	0.550844
3020.15	0.355155
3021.44	0.173174
3022.73	0.351836
3024.02	0.571029
3025.31	0.692126
3026.6	0.134109
3027.89	0.0340567
3029.18	0.501749
3030.46	0.444816
3031.75	0.55472
3033.04	0.63765
3034.33	0.596472
3035.62	0.292695
3036.9	0.443097
3038.19	0.137229
3039.48	0.394643
3040.76	0.444024
3042.05	0.368952
3043.34	0.540669
3044.62	0.520897
3045.91	0.748481
3047.19	0.60848
3048.48	0.484109
3049.77	0.306831
3051.05	0.540118
3052.34	0.460057
3053.62	0.393555
3054.9	0.449238
3056.19	0.544897
3057.47	0.571365
3058.76	0.597075
3060.04	0.636061
3061.32	0.471094
3062.61	0.361363
3063.89	0.579007
3065.17	0.117935
3066.45	0.60951
3067.74	0.693934
3069.02	0.493002
3070.3	0.577301
3071.58	0.320785
3072.86	0.566398
3074.14	0.171873
3075.42	0.401866
3076.7	0.6041
3077.99	0.127706
3079.26	0.371529
3080.54	0.141497
3081.82	0.129618
3083.1	0.118565
3084.38	0.311444
3085.66	-0.0114059
3086.94	0.0316715
3088.22	-0.115925
3089.5	0.129454
3090.78	0.00792074
3092.05	0.0490069
3093.33	-0.0862565
3094.61	0.144774
3095.89	0.0639558
3097.16	0.457558
3098.44	0.213818
3099.72	0.0647945
3100.99	0.349121
3102.27	0.091516
3103.54	0.0778265
3104.82	0.402786
3106.1	0.0108185
3107.37	0.323192
3108.65	0.0813847
3109.92	0.232752
3111.2	0.114026
3112.47	-0.329424
3113.74	0.161974
3115.02	0.0164537
3116.29	0.141537
3117.56	0.0488472
3118.84	0.131476
3120.11	0.0910215
3121.38	-0.180758
3122.66	0.197544
3123.93	-0.142699
3125.2	0.153699
3126.47	0.0304837
3127.74	0.0970411
3129.01	0.163795
3130.29	0.217094
3131.56	0.189175
3132.83	0.242048
3134.1	0.0107722
3135.37	0.197608
3136.64	0.00584793
3137.91	0.00249624
3139.18	-0.338076
3140.45	0.0214663
3141.72	-0.117294
3142.99	0.10699
3144.26	-0.152209
3145.52	0.192932
3146.79	0.0955462
3148.06	-0.135351
3149.33	-0.365708
