200.533	0.554526
202.348	0.577436
204.162	0.601254
205.976	0.91761
207.792	0.917784
209.605	1.01452
211.418	0.187118
213.23	0.403114
215.044	0.278217
216.856	0.73454
218.667	0.802651
220.478	0.846924
222.289	0.819311
224.102	0.744099
225.912	-0.0073328
227.721	0.81195
229.531	0.374503
231.34	0.298881
233.148	0.29534
234.956	0.460807
236.766	-0.264687
238.574	0.26501
240.381	0.53159
242.188	0.124983
243.994	0.973495
245.801	0.157249
247.606	0.521932
249.412	0.52212
251.217	0.181479
253.024	0.345445
254.828	0.290589
256.632	-0.295021
258.436	-0.0842237
260.239	-0.0168505
262.042	-0.285258
263.845	0.00166702
265.647	0.385818
267.449	0.143687
269.25	-0.436394
271.052	0.21216
272.852	0.160565
274.653	0.204137
276.453	0.945285
278.253	0.599932
280.052	0.517963
281.852	-0.335925
283.65	0.276833
285.449	0.070385
287.247	0.295645
289.044	0.304622
290.842	0.17045
292.639	0.157227
294.436	0.504064
296.232	0.277946
298.028	0.435253
299.821	0.210533
301.617	0.105163
303.412	0.23784
305.206	0.154525
307	0.523633
308.794	0.415356
310.588	0.712668
312.381	0.272442
314.172	0.619592
315.964	0.706343
317.756	0.413604
319.548	0.312568
321.34	0.403066
323.131	0.875841
324.921	0.681362
326.71	0.510548
328.5	0.410961
330.29	0.262816
332.079	0.615747
333.868	0.943492
335.654	0.742951
337.443	0.588202
339.231	0.264183
341.018	0.178166
342.804	0.426158
344.591	0.721668
346.377	0.420257
348.163	0.11961
349.947	0.583397
351.733	0.187751
353.518	0.173558
355.303	0.373135
357.085	0.261432
358.869	0.363166
360.653	0.20182
362.435	0.301649
364.218	0.281781
366.001	0.688915
367.781	0.216447
369.563	0.455441
371.345	-0.396327
373.124	-0.0165844
374.905	0.291078
376.686	0.550873
378.464	0.386125
380.244	-0.0130844
382.022	0.295453
383.801	0.0401058
385.58	0.11522
387.357	-0.396194
389.135	0.00973988
390.911	0.251849
392.689	-0.02209
394.466	0.00977135
396.241	-0.192947
398.018	0.402916
399.792	0.528915
401.568	-0.0501051
403.341	0.732615
405.117	-0.129403
406.889	0.440576
408.664	0.282037
410.436	0.33453
412.21	0.222762
413.981	0.322559
415.755	0.305623
417.525	0.477071
419.298	0.672562
421.068	0.305008
422.84	-0.0628738
424.609	0.46067
426.38	0.185278
428.149	0.00309944
429.919	0.243072
431.688	0.271744
433.455	0.418027
435.225	0.189091
436.992	0.3591
438.76	0.129538
440.527	-0.124659
442.293	0.229513
444.06	0.0423675
445.826	0.39272
447.593	0.484049
449.357	0.17733
451.122	0.198319
452.888	0.406283
454.651	0.0543213
456.415	-0.576775
458.18	0.329977
459.942	0.118452
461.705	0.233365
463.469	0.605118
465.23	-0.159851
466.991	0.0535378
468.752	-0.218949
470.515	0.579581
472.275	0.122903
474.035	-0.0555258
475.797	0.137129
477.556	0.561057
479.315	0.121579
481.073	0.263671
482.834	-0.0831976
484.592	0.29292
486.349	0.39121
488.106	0.724461
489.863	-0.0597086
491.622	0.416381
493.378	0.169498
495.134	0.319918
496.889	0.0491714
498.645	0.527489
500.401	-0.0256
502.156	-0.0637984
503.91	-0.149746
505.664	1.05601
507.417	0.474679
509.171	0.714905
510.923	0.45975
512.678	0.367913
514.43	0.274826
516.182	0.533504
517.933	1.07322
519.684	0.85943
521.435	0.551195
523.186	0.689053
524.936	0.732713
526.686	0.588655
528.435	0.069643
530.184	0.230661
531.933	0.391169
533.682	0.527406
535.43	0.498734
537.18	0.281969
538.927	0.508013
540.674	0.615995
542.421	0.257232
544.167	0.13166
545.913	0.0760832
547.659	0.206452
549.403	-0.0341492
551.148	0.258524
552.893	0.296288
554.637	0.357251
556.381	0.141348
558.125	0.0876179
559.868	0.172635
561.611	0.119864
563.354	0.458673
565.097	0.498695
566.839	0.286563
568.581	0.12128
570.322	-0.501911
572.063	0.849337
573.802	0.458206
575.542	0.550362
577.283	-0.319787
579.022	-0.156455
580.762	-0.0842505
582.501	0.217902
584.24	0.358964
585.976	-0.213674
587.714	-0.350552
589.452	0.316845
591.19	0.0402646
592.927	0.0623684
594.663	-0.32977
596.398	0.244436
598.134	0.243441
599.87	-0.0569282
601.605	-0.127885
603.338	0.0991554
605.073	-0.364789
606.808	0.0897694
608.542	-0.122748
610.274	-0.0367484
612.007	-0.133951
613.74	0.457389
615.473	0.155001
617.204	0.0820765
618.936	0.16909
620.668	0.0491314
622.397	-0.346177
624.128	0.675642
625.859	-0.108529
627.588	0.182166
629.318	0.314465
631.048	-0.372774
632.775	-0.0543594
634.505	0.173666
636.233	0.492789
637.96	0.26263
639.688	0.669283
641.416	-0.135754
643.142	0.425763
644.869	0.461628
646.594	0.179296
648.32	0.194475
650.045	0.166787
651.771	0.324015
653.496	0.598196
655.219	0.670785
656.944	0.107864
658.667	-0.318708
660.391	0.622612
662.113	0.764996
663.837	0.197136
665.558	-0.144654
667.281	0.0607038
669.002	0.0825992
670.724	1.04308
672.444	1.15913
674.166	0.865279
675.885	0.847871
677.606	0.418488
679.325	0.723319
681.045	0.912941
682.763	-0.072062
684.483	0.98877
686.2	0.390795
687.917	0.919797
689.636	0.918223
691.352	0.409244
693.07	0.452574
694.786	0.863784
696.501	0.629252
698.219	0.808189
699.933	0.548741
701.65	0.771522
703.364	0.832367
705.078	0.410238
706.793	0.975091
708.506	0.827867
710.219	0.97841
711.934	0.739201
713.646	0.934729
715.358	1.22114
717.071	0.936226
718.782	0.51505
720.493	0.459406
722.204	1.33759
723.916	0.917476
725.626	1.31634
727.336	1.03288
729.045	0.999175
730.756	1.07848
732.464	1.2932
734.173	1.23583
735.881	1.29164
737.59	0.489645
739.297	1.06581
741.004	0.762735
742.711	0.979201
744.417	1.01645
746.125	1.12236
747.831	0.959432
749.537	1.09011
751.242	1.04193
752.946	1.1748
754.651	1.35389
756.357	1.30931
758.061	1.44616
759.764	1.29154
761.467	1.4984
763.17	1.345
764.872	1.46207
766.575	1.1264
768.276	1.46698
769.978	0.856216
771.679	1.5778
773.382	1.84593
775.083	1.2092
776.783	0.912172
778.483	1.38498
780.182	1.31643
781.882	1.47499
783.581	1.54323
785.279	1.99532
786.978	1.47198
788.676	1.48921
790.373	1.75242
792.071	1.40271
793.768	1.16516
795.464	1.58201
797.161	1.72844
798.857	1.08788
800.552	1.82258
802.248	1.59038
803.941	2.236
805.636	1.55463
807.33	1.56968
809.024	1.83071
810.718	1.21519
812.412	2.14699
814.105	2.35984
815.798	2.34825
817.49	1.8222
819.183	1.94518
820.873	1.5322
822.564	2.07962
824.256	2.20332
825.947	2.23902
827.637	2.23211
829.328	2.36134
831.016	1.80292
832.705	1.82598
834.395	1.67256
836.084	1.80976
837.772	1.36664
839.459	2.06084
841.147	2.10641
842.835	1.50288
844.522	1.77021
846.209	1.39006
847.894	1.72672
849.581	2.24484
851.267	1.62393
852.953	1.90014
854.637	1.57182
856.322	1.42234
858.007	1.63135
859.689	1.00664
861.374	2.271
863.058	1.68795
864.739	1.50893
866.423	1.44171
868.106	0.990553
869.787	1.37331
871.469	0.921297
873.151	1.16836
874.831	1.32516
876.512	1.61741
878.193	0.894079
879.872	1.41198
881.553	1.63617
883.231	1.36308
884.911	1.33736
886.591	1.12989
888.268	1.5078
889.947	1.41044
891.623	1.04149
893.302	1.55016
894.978	1.35949
896.656	1.37053
898.331	1.02141
900.008	1.72644
901.683	1.28657
903.359	1.1829
905.033	1.14638
906.709	1.11014
908.383	1.4535
910.058	1.41825
911.731	1.87326
913.405	1.41678
915.078	1.58315
916.752	0.995036
918.423	1.09497
920.096	1.54904
921.768	1.47188
923.438	1.21902
925.111	1.34341
926.781	0.674413
928.452	1.37572
930.122	1.32743
931.791	1.01496
933.462	1.76167
935.13	1.49369
936.799	1.13794
938.468	1.51075
940.136	1.06856
941.803	1.06846
943.472	0.760029
945.139	1.1355
946.805	0.936178
948.473	1.55201
950.139	1.30532
951.804	0.881226
953.471	1.3176
955.136	0.851057
956.801	1.04841
958.465	1.11621
960.131	1.23055
961.794	0.860351
963.458	1.24104
965.12	0.647534
966.785	0.670815
968.447	1.28923
970.109	0.644771
971.771	0.884586
973.432	0.925682
975.095	1.71985
976.756	0.856994
978.417	1.12326
980.077	1.41234
981.737	1.70119
983.396	1.43545
985.057	1.5
986.716	1.71759
988.375	1.60156
990.033	1.61718
991.691	1.05761
993.349	0.299768
995.006	1.1101
996.663	1.27982
998.32	1.03039
999.976	1.04545
1001.63	1.47853
1003.29	1.3385
1004.95	1.00046
1006.6	1.03636
1008.26	1.24796
1009.91	0.6257
1011.56	0.969498
1013.22	0.787264
1014.87	0.780785
1016.53	0.643299
1018.18	0.462611
1019.83	1.00446
1021.48	0.825296
1023.14	0.66901
1024.79	1.05992
1026.44	0.642677
1028.09	0.924702
1029.74	0.201188
1031.39	0.700033
1033.04	0.760587
1034.69	1.23421
1036.34	1.42259
1037.99	0.891094
1039.64	1.29633
1041.29	1.48404
1042.94	0.824931
1044.58	1.36296
1046.23	0.816306
1047.88	0.553772
1049.52	0.683513
1051.17	0.683969
1052.82	0.793705
1054.46	0.795128
1056.11	0.405304
1057.75	1.03681
1059.4	0.820152
1061.04	0.646374
1062.69	0.145751
1064.33	0.361946
1065.98	0.164192
1067.62	0.574193
1069.26	0.896219
1070.9	0.261951
1072.55	0.47467
1074.19	0.405544
1075.83	0.879566
1077.47	0.595449
1079.11	0.724426
1080.76	0.246838
1082.4	0.74501
1084.04	1.1773
1085.68	0.589217
1087.32	0.714847
1088.95	1.18503
1090.59	0.895771
1092.23	0.519544
1093.87	0.553899
1095.51	0.566773
1097.15	0.66654
1098.78	0.702658
1100.42	0.78325
1102.06	0.693231
1103.69	0.260544
1105.33	0.3883
1106.97	0.796058
1108.6	0.88087
1110.24	0.104692
1111.87	0.681722
1113.51	0.0539627
1115.14	0.671029
1116.77	0.428716
1118.41	1.38729
1120.04	0.567092
1121.67	0.840671
1123.31	0.751046
1124.94	0.362787
1126.57	0.232142
1128.2	0.914774
1129.83	0.913575
1131.47	0.82734
1133.1	0.335188
1134.72	0.31325
1136.36	0.419017
1137.98	0.267469
1139.62	0.072319
1141.24	0.559711
1142.87	0.4274
1144.5	0.871185
1146.13	0.291887
1147.76	0.395754
1149.38	-0.0110559
1151.01	0.455994
1152.64	0.688564
1154.27	0.452355
1155.89	0.662873
1157.52	0.426373
1159.14	0.0839787
1160.77	0.380376
1162.39	0.486227
1164.02	0.720457
1165.64	0.359756
1167.27	0.0838604
1168.89	0.253577
1170.51	0.0392828
1172.14	0.312208
1173.76	0.371091
1175.38	0.322812
1177	0.0410147
1178.63	0.0140085
1180.25	0.347413
1181.87	-0.101553
1183.49	-0.105518
1185.11	-0.278515
1186.73	0.160286
1188.35	-0.0147133
1189.97	0.146271
1191.59	0.557985
1193.21	-0.209892
1194.83	0.241338
1196.45	0.670364
1198.07	0.387201
1199.68	0.273484
1201.3	0.600677
1202.92	0.866949
1204.53	0.425591
1206.15	0.487027
1207.77	0.173994
1209.38	0.194978
1211	0.736671
1212.62	0.234182
1214.23	0.376293
1215.84	0.662127
1217.46	0.259529
1219.07	0.854334
1220.69	0.845842
1222.3	0.734285
1223.91	1.12127
1225.53	0.411628
1227.14	1.04916
1228.75	1.04607
1230.36	0.816648
1231.97	1.02246
1233.59	0.898567
1235.2	1.23044
1236.81	1.52206
1238.42	0.636292
1240.03	1.5704
1241.64	1.5123
1243.25	0.978022
1244.85	1.47746
1246.46	0.982808
1248.07	1.87366
1249.68	1.77056
1251.29	1.2121
1252.9	1.44
1254.5	1.42031
1256.11	1.56707
1257.72	1.69429
1259.32	1.2846
1260.93	1.72415
1262.54	1.64674
1264.14	1.07208
1265.75	1.01473
1267.35	1.53711
1268.96	1.37471
1270.56	1.23207
1272.16	1.48244
1273.77	1.33796
1275.37	1.81446
1276.97	0.984406
1278.57	1.83204
1280.18	1.35329
1281.78	1.35071
1283.38	1.84472
1284.98	1.51169
1286.58	1.2417
1288.18	1.13812
1289.78	1.73797
1291.38	1.80089
1292.99	1.76038
1294.58	1.20274
1296.18	1.80073
1297.78	1.26146
1299.38	1.60839
1300.98	1.60305
1302.58	1.39062
1304.17	1.52757
1305.77	1.23188
1307.37	1.96318
1308.97	1.25665
1310.56	1.80167
1312.16	0.974367
1313.76	1.15145
1315.35	1.71729
1316.95	1.1193
1318.54	1.72637
1320.14	1.00732
1321.73	1.71442
1323.32	1.05548
1324.92	1.16882
1326.51	1.86935
1328.1	1.57425
1329.7	1.40191
1331.29	1.13031
1332.88	1.50771
1334.47	1.64423
1336.07	1.37843
1337.66	1.77892
1339.25	1.17053
1340.84	1.30671
1342.43	1.27982
1344.02	1.29146
1345.61	0.900661
1347.2	1.19269
1348.79	0.524139
1350.37	1.01956
1351.96	0.956421
1353.55	1.23495
1355.14	0.575008
1356.73	1.37438
1358.31	1.0343
1359.9	1.17287
1361.49	0.771523
1363.07	0.868588
1364.66	0.387147
1366.25	0.583881
1367.83	0.960297
1369.42	0.521276
1371	0.740417
1372.59	1.1596
1374.17	0.684295
1375.75	0.5478
1377.34	0.809345
1378.92	0.831678
1380.5	0.912839
1382.09	0.415999
1383.67	0.614386
1385.25	0.851564
1386.83	0.690822
1388.42	0.788524
1390	0.747762
1391.58	0.251402
1393.16	0.450266
1394.74	0.3915
1396.32	0.630031
1397.9	0.451571
1399.48	-0.143668
1401.06	0.231341
1402.64	-0.0278845
1404.21	0.583616
1405.79	0.700587
1407.37	0.976288
1408.95	0.798076
1410.53	0.482133
1412.1	0.462524
1413.68	0.837226
1415.26	0.914907
1416.83	0.696009
1418.41	0.752972
1419.98	1.14504
1421.56	0.297219
1423.13	0.100836
1424.71	0.378173
1426.28	0.577739
1427.86	0.147884
1429.43	0.997179
1431	1.0387
1432.58	1.37441
1434.15	0.922229
1435.72	1.43361
1437.29	1.11913
1438.87	1.41481
1440.44	1.14131
1442.01	2.08715
1443.58	1.71687
1445.15	2.44755
1446.72	1.46845
1448.29	2.10125
1449.86	2.36093
1451.43	1.91327
1453	1.44628
1454.57	1.74659
1456.14	1.94862
1457.71	1.32359
1459.27	1.85846
1460.84	1.95879
1462.41	1.68357
1463.98	1.66271
1465.54	1.28715
1467.11	1.40278
1468.67	1.26339
1470.24	1.43892
1471.81	0.555979
1473.37	0.615811
1474.94	0.911567
1476.5	0.776233
1478.07	1.05272
1479.63	0.819435
1481.19	0.664532
1482.76	0.352832
1484.32	0.354614
1485.88	0.00349045
1487.45	0.591985
1489.01	0.493801
1490.57	-0.192766
1492.13	0.879467
1493.69	0.561266
1495.26	-0.0113187
1496.82	0.0985818
1498.38	0.169133
1499.94	0.45373
1501.5	0.272661
1503.06	0.500164
1504.62	0.0498486
1506.17	0.490966
1507.73	0.814701
1509.29	-0.369858
1510.85	0.06812
1512.41	0.0804234
1513.97	0.342589
1515.52	0.181401
1517.08	0.155481
1518.64	0.283648
1520.19	0.373713
1521.75	0.387212
1523.31	0.304834
1524.86	0.107466
1526.42	0.157632
1527.97	0.168867
1529.52	0.198657
1531.08	-0.0754161
1532.63	0.106729
1534.19	0.38378
1535.74	0.301665
1537.29	0.39054
1538.85	0.158933
1540.4	0.682312
1541.95	0.828006
1543.5	0.578141
1545.06	0.347404
1546.61	0.417455
1548.16	-0.281995
1549.71	0.838003
1551.26	0.907359
1552.81	0.378468
1554.36	0.337243
1555.91	0.18516
1557.46	0.743958
1559.01	-0.0208621
1560.56	0.522056
1562.11	0.543838
1563.65	0.715775
1565.2	0.757607
1566.75	0.668894
1568.29	0.841262
1569.84	0.733368
1571.39	0.643806
1572.94	0.796688
1574.48	0.91213
1576.03	0.59825
1577.57	0.807251
1579.12	1.01663
1580.66	0.797126
1582.21	1.02644
1583.75	0.714809
1585.3	0.60916
1586.84	0.746879
1588.38	0.791309
1589.93	0.929154
1591.47	1.34752
1593.01	0.829515
1594.55	0.891615
1596.1	1.55336
1597.64	1.3725
1599.18	0.704578
1600.72	1.31228
1602.26	0.832371
1603.8	1.64768
1605.34	1.12925
1606.88	0.815977
1608.42	1.06483
1609.96	1.12381
1611.5	1.29353
1613.04	0.935621
1614.58	0.670889
1616.12	1.08136
1617.65	0.648269
1619.19	1.05966
1620.73	0.722876
1622.27	1.21124
1623.8	0.857664
1625.34	0.990879
1626.87	0.936246
1628.41	0.749608
1629.95	1.57176
1631.48	1.17737
1633.02	0.820487
1634.55	1.37895
1636.09	1.58306
1637.62	1.28426
1639.15	1.24723
1640.69	1.43388
1642.22	1.47081
1643.76	1.46949
1645.29	2.09979
1646.82	1.91024
1648.35	1.77645
1649.88	1.58753
1651.42	1.5853
1652.95	1.21324
1654.48	1.76948
1656.01	2.08493
1657.54	1.6775
1659.07	1.62156
1660.6	2.15687
1662.13	1.89473
1663.66	1.94618
1665.19	1.64613
1666.72	1.58682
1668.24	1.25196
1669.77	2.09844
1671.3	2.11641
1672.83	1.52757
1674.35	1.49188
1675.88	1.08778
1677.41	1.58503
1678.93	1.40028
1680.46	0.902262
1681.99	0.753307
1683.51	0.989882
1685.04	0.749127
1686.56	0.820727
1688.09	1.46079
1689.61	1.11132
1691.13	1.11029
1692.66	0.340736
1694.18	0.523017
1695.71	0.631849
1697.23	0.557644
1698.75	0.61107
1700.27	0.171345
1701.8	0.205942
1703.32	0.240047
1704.84	0.200823
1706.36	0.579776
1707.88	0.357975
1709.4	0.263628
1710.92	0.0424948
1712.44	0.184511
1713.96	0.398891
1715.48	0.287136
1717	0.247856
1718.52	0.262755
1720.04	0.259516
1721.56	0.130141
1723.07	0.0735373
1724.59	-0.180375
1726.11	0.269283
1727.63	-0.378393
1729.14	-0.395103
1730.66	0.00480127
1732.18	0.188167
1733.69	0.102884
1735.21	0.150394
1736.72	0.381709
1738.24	0.350987
1739.75	0.228564
1741.27	0.249275
1742.78	0.0320935
1744.3	-0.120602
1745.81	-0.205924
1747.32	0.0570798
1748.84	0.00990963
1750.35	0.271416
1751.86	-0.336114
1753.37	-0.0526385
1754.89	0.0293365
1756.4	0.027555
1757.91	-0.032886
1759.42	-0.0141611
1760.93	0.042644
1762.44	-0.443801
1763.95	0.402925
1765.46	0.290511
1766.97	0.326393
1768.48	-0.115066
1769.99	0.0495634
1771.5	0.225515
1773.01	-0.0688062
1774.52	0.12973
1776.03	0.119283
1777.53	0.00757885
1779.04	0.0199819
1780.55	-0.201688
1782.06	0.171839
1783.56	0.050909
1785.07	-0.13729
1786.57	-0.218147
1788.08	0.0504456
1789.59	0.0472751
1791.09	0.0772038
1792.6	-0.0499649
1794.1	-0.126016
1795.6	0.231981
1797.11	-0.111236
1798.61	0.0729241
1800.12	-0.00941992
1801.62	-0.141873
1803.12	-0.158206
1804.63	-0.199667
1806.13	-0.138525
1807.63	-0.001369
1809.13	0.128057
1810.63	0.15275
1812.14	0.191597
1813.64	0.0438271
1815.14	-0.0233054
1816.64	-0.2483
1818.14	-0.0995522
1819.64	-0.0275774
1821.14	0.20506
1822.64	0.183088
1824.14	0.0242019
1825.63	0.147079
1827.13	-0.0112462
1828.63	0.0433521
1830.13	-0.00449657
1831.63	0.169947
1833.12	0.00200701
1834.62	0.0761166
1836.12	0.070395
1837.62	0.00109434
1839.11	0.136302
1840.61	-0.204817
1842.1	-0.0286951
1843.6	0.0229478
1845.09	0.0517364
1846.59	0.105732
1848.08	0.163271
1849.58	-0.0519233
1851.07	0.0168543
1852.57	0.0699992
1854.06	0.195428
1855.55	0.166678
1857.04	-0.105052
1858.54	0.156592
1860.03	0.136333
1861.52	0.0156598
1863.01	0.143794
1864.5	0.0786405
1866	0.00109768
1867.49	0.180896
1868.98	0.081737
1870.47	-0.0697899
1871.96	0.27922
1873.45	0.075901
1874.94	0.18891
1876.43	-0.175921
1877.92	0.0732617
1879.41	0.13884
1880.89	0.0234137
1882.38	0.14397
1882.48	0.154368
1883.97	0.224643
1885.47	-0.0194287
1886.96	0.154048
1888.46	0.292111
1889.95	0.169178
1891.44	0.29061
1892.94	-0.00403023
1894.43	0.380888
1895.92	0.193316
1897.41	0.388989
1898.9	0.0802174
1900.4	-0.0206623
1901.89	0.0511556
1903.38	0.243293
1904.87	0.277666
1906.36	-0.314135
1907.85	-0.0370908
1909.34	-0.0375795
1910.83	0.0667605
1912.32	-0.1058
1913.81	0.173094
1915.29	-0.0162263
1916.78	0.193024
1918.27	0.245756
1919.76	-0.0311203
1921.25	0.488861
1922.74	0.0911002
1924.22	-0.011477
1925.71	0.302324
1927.2	0.149554
1928.68	-0.21049
1930.17	0.191294
1931.65	0.0556874
1933.14	0.213331
1934.63	0.0925393
1936.11	0.0397291
1937.59	0.0897741
1939.08	0.0702548
1940.56	0.223647
1942.05	0.377521
1943.53	0.169844
1945.01	0.135467
1946.5	0.153136
1947.98	-0.0534096
1949.46	0.0497108
1950.94	0.702932
1952.43	0.0640798
1953.91	0.33696
1955.39	0.0766859
1956.87	0.418096
1958.35	-0.355948
1959.83	0.278038
1961.31	0.294587
1962.79	-0.237198
1964.27	0.34497
1965.75	0.052845
1967.23	0.222602
1968.71	0.306106
1970.19	0.269366
1971.67	0.437432
1973.14	0.263827
1974.62	0.55106
1976.1	0.497145
1977.58	0.102791
1979.05	0.18564
1980.53	0.149286
1982.01	-0.00614786
1983.48	0.246084
1984.96	-0.0115356
1986.43	0.0872087
1987.91	-0.136217
1989.38	0.047348
1990.86	0.518852
1992.33	0.297084
1993.81	0.177777
1995.28	0.278906
1996.76	0.177595
1998.23	0.397207
1999.7	0.0592093
2001.18	0.463509
2002.65	0.141756
2004.12	-0.0617924
2005.59	0.442805
2007.06	0.27381
2008.54	-0.281621
2010.01	0.392845
2011.48	0.343687
2012.95	0.311421
2014.42	0.396634
2015.89	-0.158126
2017.36	0.1445
2018.83	0.311748
2020.3	0.377574
2021.77	-0.0774007
2023.24	0.00544786
2024.71	0.525051
2026.17	0.374294
2027.64	0.09056
2029.11	0.126671
2030.58	0.298034
2032.04	-0.0164084
2033.51	0.139362
2034.98	0.261645
2036.45	0.366919
2037.91	0.08535
2039.38	0.206696
2040.84	0.0590658
2042.31	-0.00428486
2043.77	0.21881
2045.24	0.308154
2046.7	0.0109591
2048.17	0.404322
2049.63	-0.196505
2051.1	0.145561
2052.56	0.132505
2054.02	0.236108
2055.48	0.270873
2056.95	0.759678
2058.41	0.388058
2059.87	0.454524
2061.33	0.21817
2062.8	0.386576
2064.26	0.673503
2065.72	0.456323
2067.18	0.610069
2068.64	0.19207
2070.1	0.346546
2071.56	0.433765
2073.02	0.689266
2074.48	0.338389
2075.94	0.239793
2077.4	0.342981
2078.86	0.479527
2080.31	0.278915
2081.77	0.279946
2083.23	0.314116
2084.69	0.297197
2086.14	0.51521
2087.6	0.480321
2089.06	0.798044
2090.52	0.493763
2091.97	0.475135
2093.43	0.892723
2094.88	0.588511
2096.34	0.468614
2097.79	0.716809
2099.25	0.545715
2100.7	0.742513
2102.16	0.454567
2103.61	0.802227
2105.07	0.683196
2106.52	0.832338
2107.97	0.448546
2109.43	0.198628
2110.88	0.94865
2112.33	0.413987
2113.78	0.861054
2115.24	0.424245
2116.69	0.685676
2118.14	0.747546
2119.59	0.810368
2121.04	0.92444
2122.49	1.04003
2123.94	1.10705
2125.39	0.859576
2126.84	0.877227
2128.29	0.74487
2129.74	1.00916
2131.19	1.17276
2132.64	1.20306
2134.09	1.16709
2135.54	1.44596
2136.98	1.36221
2138.43	1.52797
2139.88	1.16651
2141.33	1.51714
2142.77	1.42254
2144.22	1.49387
2145.67	1.43297
2147.11	1.52079
2148.56	1.22718
2150.01	1.64502
2151.45	1.36625
2152.9	1.33511
2154.34	2.11512
2155.79	1.68518
2157.23	1.85171
2158.67	1.67097
2160.12	1.60732
2161.56	1.89314
2163	1.94871
2164.45	1.83984
2165.89	1.76479
2167.33	1.72279
2168.78	1.56346
2170.22	1.98454
2171.66	1.38924
2173.1	1.87345
2174.54	2.00705
2175.98	1.55798
2177.42	1.7743
2178.86	1.69196
2180.3	1.74346
2181.74	1.92875
2183.18	1.61573
2184.62	2.33407
2186.06	2.07122
2187.5	1.62526
2188.94	1.8282
2190.38	1.73157
2191.82	1.60137
2193.25	1.93671
2194.69	1.42176
2196.13	1.58788
2197.57	1.58576
2199	1.36598
2200.44	1.62742
2201.88	1.39022
2203.31	0.905031
2204.75	1.43278
2206.18	1.24818
2207.62	1.06421
2209.05	1.44327
2210.49	1.15928
2211.92	0.990538
2213.36	1.08586
2214.79	1.09832
2216.22	1.14425
2217.66	1.30653
2219.09	0.793561
2220.52	0.693805
2221.96	1.17106
2223.39	0.938992
2224.82	0.953004
2226.25	0.88332
2227.68	0.943903
2229.11	0.888327
2230.55	0.865016
2231.98	0.825171
2233.41	0.80198
2234.84	0.664964
2236.27	0.725164
2237.7	0.70489
2239.12	0.898252
2240.55	0.799469
2241.98	0.946834
2243.41	0.785325
2244.84	0.673042
2246.27	0.902781
2247.7	0.332092
2249.12	0.558887
2250.55	0.848851
2251.98	0.567207
2253.41	0.334157
2254.83	0.832845
2256.26	0.844794
2257.68	0.469181
2259.11	0.680069
2260.54	0.325381
2261.96	0.49179
2263.39	0.578409
2264.81	0.665405
2266.24	0.605879
2267.66	0.545659
2269.08	0.761315
2270.51	0.357854
2271.93	0.474821
2273.35	0.36368
2274.78	0.659784
2276.2	0.499957
2277.62	0.421669
2279.04	-0.0315681
2280.47	0.591145
2281.89	0.529023
2283.31	0.336271
2284.73	0.535089
2286.15	0.424034
2287.57	0.264205
2288.99	0.104597
2290.41	0.533408
2291.83	-0.26324
2293.25	0.231484
2294.67	0.497565
2296.09	0.305489
2297.51	0.342452
2298.93	0.412238
2300.35	0.465829
2301.76	0.552478
2303.18	0.147262
2304.6	0.414729
2306.02	0.649571
2307.44	0.276425
2308.85	0.494286
2310.27	0.432303
2311.69	-0.0248199
2313.1	0.603687
2314.52	0.179495
2315.93	0.216576
2317.35	0.682627
2318.76	0.144001
2320.18	0.396294
2321.59	0.466486
2323.01	0.799321
2324.42	0.354654
2325.83	0.50232
2327.25	0.961832
2328.66	0.596145
2330.07	0.412179
2331.49	0.426635
2332.9	0.129232
2334.31	0.457907
2335.72	0.490525
2337.13	0.407659
2338.55	0.143246
2339.96	0.354722
2341.37	0.450258
2342.78	0.249852
2344.19	0.394074
2345.6	0.226902
2347.01	0.223947
2348.42	0.319235
2349.83	0.365035
2351.24	0.410166
2352.65	-0.0681925
2354.05	0.253145
2355.46	0.165793
2356.87	0.208614
2358.28	-0.0739927
2359.69	0.261492
2361.09	0.304185
2362.5	0.330557
2363.91	0.178633
2365.31	0.0755124
2366.72	-0.0757422
2368.13	0.112791
2369.53	0.511449
2370.94	0.346313
2372.34	0.101876
2373.75	0.228827
2375.15	0.195007
2376.56	0.450552
2377.96	-0.195482
2379.37	0.186576
2380.77	0.0209174
2382.17	0.191271
2383.58	0.216376
2384.98	0.0332608
2386.38	0.330187
2387.79	0.371758
2389.19	-0.0482192
2390.59	0.154792
2391.99	-0.0396247
2393.39	0.371593
2394.8	-0.107603
2396.2	0.0341563
2397.6	-0.046217
2399	0.0963268
2400.4	0.0962057
2401.8	0.20751
2403.2	0.271172
2404.6	0.398046
2406	0.127356
2407.4	-0.00105381
2408.79	0.0286512
2410.19	0.343385
2411.59	-0.0708466
2412.99	0.371068
2414.39	0.275362
2415.78	0.164996
2417.18	-0.118497
2418.58	-0.243031
2419.98	0.234481
2421.37	0.189368
2422.77	0.128131
2424.16	0.367708
2425.56	0.322143
2426.96	-0.436259
2428.35	0.200693
2429.74	-0.128644
2431.14	0.383207
2432.53	0.181314
2433.93	0.0265026
2435.32	0.109053
2436.72	0.0951924
2438.11	0.4456
2439.5	0.000649452
2440.9	0.0951452
2442.29	0.173285
2443.68	0.298743
2445.07	-0.0201645
2446.47	-0.180371
2447.86	0.11904
2449.25	-0.088726
2450.64	0.178858
2452.03	0.320005
2453.42	0.20849
2454.81	-0.0288806
2456.2	-0.0600181
2457.59	-0.059268
2458.98	-0.185153
2460.37	0.147201
2461.76	-0.0745516
2463.15	0.193203
2464.54	0.144326
2465.93	-0.157431
2467.32	0.330279
2468.7	0.533499
2470.09	-0.0206327
2471.48	0.308166
2472.87	0.0689526
2474.25	0.34897
2475.64	0.0303111
2477.03	-0.0209336
2478.41	0.0377898
2479.8	-0.0917687
2481.18	0.155325
2482.57	0.276645
2483.95	0.0217061
2485.34	0.0950098
2486.72	-0.0670381
2488.11	0.254212
2489.49	-0.25191
2490.88	0.208138
2492.26	0.232145
2493.65	-0.100226
2495.03	0.32921
2496.41	0.138862
2497.79	0.259255
2499.18	0.224923
2500.56	0.0821261
2501.94	-0.0146694
2503.32	-0.235548
2504.7	-0.101869
2506.09	0.0156579
2507.47	0.0711665
2508.85	0.35725
2510.23	-0.0326962
2511.61	-0.298631
2512.99	0.141622
2514.37	-0.27594
2515.75	-0.0800114
2517.13	-0.0367255
2518.51	-0.207118
2519.89	-0.0562892
2521.26	-0.150166
2522.64	-0.244401
2524.02	0.0422125
2525.4	-0.144605
2526.78	-0.0724459
2528.15	0.182475
2529.53	-0.0943518
2530.91	0.101461
2532.28	0.480748
2533.66	-0.0961599
2535.04	0.254317
2536.41	0.331308
2537.79	-0.0327406
2539.16	0.0582509
2540.54	0.0119257
2541.91	-0.0801802
2543.29	0.161766
2544.66	0.08567
2546.04	0.101537
2547.41	0.133511
2548.78	0.211671
2550.16	0.107863
2551.53	0.292026
2552.9	0.0961065
2554.27	0.157394
2555.65	-0.282694
2557.02	0.0354104
2558.39	0.0802951
2559.76	0.337586
2561.13	-0.162635
2562.51	-0.101505
2563.88	0.00551891
2565.25	-0.159895
2566.62	-0.279659
2567.99	-0.0356317
2569.36	0.0568757
2570.73	0.316123
2572.1	-0.106653
2573.47	0.1982
2574.84	-0.0577321
2576.2	-0.025609
2577.57	0.0519614
2578.94	0.15971
2580.31	0.388516
2581.68	0.16212
2583.05	0.4358
2584.41	0.0876899
2585.78	-0.0936403
2587.15	0.346585
2588.51	0.104894
2589.88	0.424059
2591.24	0.243033
2592.61	0.122306
2593.98	-0.105015
2595.34	0.0456333
2596.71	0.195388
2598.07	0.102331
2599.44	-0.0211477
2600.8	0.0520263
2602.16	-0.101033
2603.53	0.169235
2604.89	0.122846
2606.26	-0.134522
2607.62	-0.226047
2608.98	-0.00157928
2610.34	-0.00417757
2611.71	0.1578
2613.07	0.138167
2614.43	-0.047255
2615.79	0.0226035
2617.15	0.167449
2618.52	0.222613
2619.88	0.128658
2621.24	0.229818
2622.6	0.226662
2623.96	-0.149606
2625.32	0.280427
2626.68	-0.0657454
2628.04	-0.277548
2629.4	-0.116994
2630.75	0.0878024
2632.11	0.485455
2633.47	-0.0236692
2634.83	0.150765
2636.19	-0.164495
2637.55	0.0393977
2638.9	-0.141958
2640.26	0.13574
2641.62	0.132324
2642.98	0.0109582
2644.33	-0.272487
2645.69	-0.0392261
2647.04	0.0312591
2648.4	0.130592
2649.76	0.22914
2651.11	0.179956
2652.47	0.17469
2653.82	-0.00645161
2655.18	0.135787
2656.53	-0.160759
2657.88	0.0709038
2659.24	-0.0919843
2660.59	-0.19589
2661.95	-0.0659413
2663.3	0.209512
2664.65	-0.15823
2666	-0.0300884
2667.36	0.155794
2668.71	0.210249
2670.06	0.0902305
2671.41	-0.130976
2672.76	-0.191567
2674.12	0.125955
2675.47	0.124265
2676.82	-0.0800958
2678.17	-0.182277
2679.52	-0.0227857
2680.87	0.0359445
2682.22	0.0665808
2683.57	0.257638
2684.92	0.14495
2686.27	0.322773
2687.62	0.152287
2688.97	0.169566
2690.31	0.272686
2691.66	-0.0465336
2693.01	-0.0184813
2694.36	0.0233202
2695.71	0.0939174
2697.05	0.150419
2698.4	-0.197615
2699.75	-0.0374975
2701.09	-0.26706
2702.44	-0.0465932
2703.78	0.479126
2705.13	0.0344234
2706.48	0.0970078
2707.82	0.638327
2709.17	0.308794
2710.51	0.356287
2711.86	-0.0176535
2713.2	0.291034
2714.54	0.309158
2715.89	0.0800829
2717.23	0.170753
2718.57	0.0285268
2719.92	0.220649
2721.26	0.485275
2722.6	0.240183
2723.95	0.111144
2725.29	0.331115
2726.63	0.434355
2727.97	0.202604
2729.31	-0.0583806
2730.65	0.451773
2732	0.438034
2733.34	0.584391
2734.68	0.192685
2736.02	0.237547
2737.36	0.180719
2738.7	0.196611
2740.04	0.299586
2741.38	0.184089
2742.72	0.0100079
2744.05	0.00990438
2745.39	0.532345
2746.73	0.182744
2748.07	-0.137668
2749.41	0.122602
2750.75	0.150763
2752.08	0.150111
2753.42	-0.0387568
2754.76	-0.0245252
2756.09	0.236035
2757.43	0.221462
2758.77	-0.0679436
2760.1	0.149633
2761.44	0.135974
2762.78	0.223984
2764.11	0.182019
2765.44	-0.019083
2766.78	0.256946
2768.11	0.18507
2769.45	0.112274
2770.78	-0.0771461
2772.12	0.368093
2773.45	0.00379896
2774.78	-0.129614
2776.12	0.270127
2777.45	0.136965
2778.78	0.177014
2780.12	0.0593381
2781.45	-0.115359
2782.78	0.0116305
2784.11	0.152767
2785.44	0.0213909
2786.78	0.291373
2788.11	0.103343
2789.44	0.28811
2790.77	0.0729547
2792.1	-0.198651
2793.43	0.0162606
2794.76	-0.169048
2796.09	0.217041
2797.42	-0.0117006
2798.75	-0.0693469
2800.08	0.158189
2801.4	0.0572186
2802.73	-0.0437903
2804.06	-0.102121
2805.39	-0.0752373
2806.72	0.335487
2808.05	0.176239
2809.37	0.102183
2810.7	0.184469
2812.03	-0.0309329
2813.35	0.194445
2814.68	0.137155
2816.01	0.33614
2817.33	0.181611
2818.66	-0.0574861
2819.98	0.114477
2821.31	0.654607
2822.63	0.244651
2823.96	0.061049
2825.28	0.344699
2826.61	0.104282
2827.93	0.40237
2829.25	-0.035347
2830.58	0.291778
2831.9	0.505801
2833.23	0.436677
2834.55	0.38148
2835.87	0.396691
2837.19	0.623735
2838.52	0.100616
2839.84	0.694828
2841.16	0.525336
2842.48	0.653072
2843.8	1.24765
2845.12	0.980624
2846.44	1.29354
2847.77	1.5785
2849.08	1.35471
2850.4	1.7243
2851.73	1.69774
2853.05	1.76969
2854.36	2.025
2855.68	1.85621
2857	1.92761
2858.32	2.15439
2859.64	1.83033
2860.96	1.91571
2862.28	1.84551
2863.59	2.08555
2864.91	2.56512
2866.23	2.46604
2867.55	2.70569
2868.86	2.98791
2870.18	2.70648
2871.5	2.98911
2872.81	3.24324
2874.13	2.74984
2875.44	3.31223
2876.76	2.94399
2878.07	3.19454
2879.39	3.43049
2880.7	3.41343
2882.02	3.45329
2883.33	3.48
2884.65	3.32502
2885.96	3.39526
2887.28	3.21291
2888.59	3.3951
2889.9	3.59052
2891.21	3.74298
2892.53	3.61443
2893.84	3.87808
2895.15	3.63769
2896.46	3.72015
2897.78	3.77548
2899.09	3.63582
2900.4	3.59482
2901.71	3.9599
2903.02	4.0034
2904.33	4.047
2905.64	4.27267
2906.95	4.06521
2908.26	4.40398
2909.57	4.7436
2910.88	4.70601
2912.19	4.72439
2913.5	4.96609
2914.81	5.01053
2916.12	4.9134
2917.43	5.47263
2918.73	5.68079
2920.04	5.81867
2921.35	5.39779
2922.66	6.04065
2923.96	6.08361
2925.27	6.19755
2926.58	6.5078
2927.88	6.1471
2929.19	7.00226
2930.5	6.47283
2931.8	6.34834
2933.11	6.71282
2934.41	6.50412
2935.72	6.84059
2937.02	6.18494
2938.33	6.46579
2939.63	6.02022
2940.94	6.23187
2942.24	5.64779
2943.54	5.66564
2944.85	5.83852
2946.15	5.62101
2947.45	4.74631
2948.76	5.15838
2950.06	5.07967
2951.36	5.0133
2952.66	4.58109
2953.97	4.81969
2955.27	4.49788
2956.57	4.35882
2957.87	4.40343
2959.17	4.36637
2960.47	4.30368
2961.77	4.49504
2963.07	4.07011
2964.37	4.02313
2965.67	3.8765
2966.97	3.91096
2968.27	4.0567
2969.57	3.66743
2970.87	3.13716
2972.17	3.59164
2973.47	3.46965
2974.77	3.58685
2976.07	3.37972
2977.36	3.18547
2978.66	2.86301
2979.96	2.9896
2981.26	3.10086
2982.55	3.26772
2983.85	2.68952
2985.15	2.74505
2986.44	2.68937
2987.74	2.663
2989.03	2.28613
2990.33	2.30292
2991.63	2.05224
2992.92	2.26444
2994.21	1.95559
2995.51	1.89873
2996.8	1.68681
2998.1	1.57307
2999.39	1.88037
3000.69	1.31845
3001.98	1.07974
3003.27	0.799404
3004.57	1.30375
3005.86	1.55544
3007.15	1.20447
3008.44	1.14691
3009.74	1.04669
3011.03	1.0158
3012.32	1.2917
3013.61	1.00906
3014.9	0.838625
3016.19	0.766418
3017.48	0.973269
3018.78	0.401007
3020.07	0.469106
3021.36	0.703535
3022.65	0.520265
3023.94	0.614014
3025.23	0.706923
3026.51	0.259221
3027.8	0.435314
3029.09	0.238549
3030.38	0.402326
3031.67	0.249327
3032.96	0.442306
3034.24	0.483535
3035.53	0.524274
3036.82	0.522556
3038.11	0.49184
3039.39	0.611041
3040.68	0.453741
3041.97	0.433308
3043.25	0.193474
3044.54	0.37914
3045.83	0.633864
3047.11	0.534506
3048.4	0.55991
3049.68	0.668764
3050.97	0.696876
3052.25	0.602764
3053.54	0.549551
3054.82	0.427565
3056.11	0.52297
3057.39	1.02632
3058.67	0.697309
3059.96	0.627055
3061.24	0.6251
3062.52	0.664598
3063.81	0.310744
3065.09	0.678652
3066.37	0.598903
3067.65	0.737396
3068.94	0.237023
3070.22	0.293859
3071.5	0.0371652
3072.78	0.337087
3074.06	0.635803
3075.34	0.580134
3076.62	0.320428
3077.9	0.29192
3079.18	0.508359
3080.46	0.169563
3081.74	-0.0866952
3083.02	0.417556
3084.3	0.366087
3085.58	0.273844
3086.86	0.344012
3088.14	0.196362
3089.42	0.29238
3090.69	0.292911
3091.97	0.130406
3093.25	0.144293
3094.53	0.3617
3095.8	0.145252
3097.08	-0.0711632
3098.36	-0.0707989
3099.63	0.132601
3100.91	0.132511
3102.19	0.0510855
3103.46	-0.287448
3104.74	-0.030014
3106.01	0.173605
3107.29	0.161234
3108.56	0.0141907
3109.84	-0.0374599
3111.11	0.128117
3112.39	-0.193348
3113.66	-0.0270419
3114.94	0.0715008
3116.21	0.00692034
3117.48	-0.234773
3118.76	0.0244317
3120.03	-0.0157151
3121.3	0.0517755
3122.57	-0.152421
3123.85	0.0496378
3125.12	0.156719
3126.39	-0.0338583
3127.66	0.263041
3128.93	-0.0891991
3130.21	-0.170681
3131.48	0.23444
3132.75	0.0715194
3134.02	0.326992
3135.29	-0.160828
3136.56	-0.0955286
3137.83	-0.0173836
3139.1	0.127541
3140.37	0.0565667
3141.64	0.146951
3142.91	-0.165875
3144.17	-0.0618072
3145.44	-0.145428
3146.71	0.0261049
3147.98	0.0235796
3149.25	0.115057
