200.43	0.641418
202.246	0.662683
204.061	0.68507
205.875	0.343554
207.688	0.31861
209.501	-0.217195
211.316	0.387937
213.129	0.214229
214.941	0.233611
216.753	0.300765
218.566	-0.0681381
220.377	0.628904
222.188	0.21327
223.999	0.282455
225.809	0.0620928
227.618	0.204275
229.43	0.225192
231.239	-0.695828
233.047	-0.168941
234.855	-0.052206
236.663	0.86105
238.471	-0.344972
240.278	-0.319324
242.087	0.504169
243.894	0.388793
245.7	0.321485
247.506	0.180098
249.311	-0.519441
251.116	0.395643
252.921	0.414418
254.725	-0.581841
256.529	0.736981
258.333	-0.137728
260.136	0.0979671
261.939	0.142694
263.744	0.16496
265.546	-0.100915
267.348	0.308213
269.15	0.283257
270.951	0.20921
272.752	0.0857229
274.552	0.418873
276.353	0.00297642
278.152	0.621617
279.952	-0.0629816
281.751	0.33427
283.55	0.0796623
285.348	1.14543
287.146	0.0720978
288.942	0.727189
290.739	0.6631
292.536	0.337137
294.333	0.324141
296.129	0.623428
297.925	0.278267
299.721	0.578917
301.516	0.258167
303.311	0.294905
305.106	0.592838
306.9	0.0785103
308.694	0.637163
310.486	0.266524
312.279	0.278435
314.072	-0.017602
315.864	0.378734
317.656	0.395879
319.448	0.343104
321.24	0.148444
323.029	0.717431
324.819	0.953482
326.61	-0.0755415
328.4	0.231826
330.19	0.777942
331.977	-0.207363
333.766	0.623242
335.555	-0.318765
337.343	0.0529957
339.131	0.637854
340.917	0.407599
342.704	1.13282
344.491	0.662625
346.277	0.241061
348.062	0.297993
349.848	0.212165
351.633	-0.231628
353.416	-0.0553703
355.201	-0.0233727
356.986	0.484156
358.77	0.441687
360.552	0.755268
362.335	0.0917444
364.118	0.902666
365.899	0.618623
367.682	0.334244
369.464	0.476315
371.243	0.569806
373.025	0.402075
374.806	0.210678
376.585	0.609885
378.365	0.348479
380.143	0.0413904
381.923	0.395037
383.702	0.890568
385.479	0.140924
387.258	0.192164
389.034	-0.0609102
390.812	0.156829
392.59	-0.23528
394.365	0.312589
396.142	-0.266422
397.916	-0.587059
399.693	0.383913
401.467	-0.28966
403.242	0.163568
405.015	0.592502
406.79	0.480467
408.565	-0.242589
410.337	0.23142
412.111	0.329766
413.882	0.639672
415.656	0.0586386
417.426	0.135402
419.197	0.118951
420.969	-0.249299
422.739	-0.336213
424.51	-0.0481796
426.279	0.473742
428.05	0.126202
429.819	0.388504
431.589	0.345606
433.356	0.0213881
435.124	0.237317
436.893	0.31242
438.66	0.0817356
440.428	0.27205
442.194	0.0380278
443.96	0.903891
445.727	0.361084
447.492	0.917931
449.259	0.350835
451.023	0.392285
452.787	0.737467
454.553	0.10267
456.316	0.261304
458.079	0.256518
459.844	0.507761
461.606	0.270989
463.368	0.129029
465.132	0.314859
466.893	0.0620832
468.654	-0.257804
470.415	0.44713
472.177	0.222762
473.937	-0.118998
475.696	-0.113409
477.456	0.146312
479.217	0.404202
480.975	0.614429
482.733	0.568563
484.491	0.523907
486.251	0.248281
488.008	0.72049
489.765	0.449079
491.522	0.201705
493.278	0.445255
495.036	0.479024
496.791	0.161648
498.546	0.194856
500.301	0.321483
502.056	0.212981
503.81	0.620168
505.566	0.439167
507.319	0.632801
509.073	0.307473
510.825	1.18034
512.578	0.239832
514.33	0.0742884
516.082	0.895471
517.833	0.797767
519.587	0.511003
521.337	0.247212
523.088	0.452879
524.838	0.235628
526.588	0.112425
528.337	0.575549
530.087	0.217891
531.835	0.492605
533.584	0.227824
535.332	0.89783
537.08	-0.0939722
538.827	0.198753
540.574	0.373067
542.321	1.43127
544.068	0.369452
545.814	-0.108927
547.56	0.736915
549.305	0.143771
551.05	-0.19308
552.795	0.280581
554.54	0.0602398
556.284	0.163793
558.027	-0.124488
559.771	-0.135259
561.514	0.130785
563.257	-0.316061
564.999	0.0198355
566.742	0.149194
568.481	0.646563
570.223	-0.0487356
571.964	0.542562
573.705	0.355445
575.445	-0.0362883
577.185	0.44551
578.925	0.722436
580.665	0.311449
582.402	-0.0998087
584.141	0.292685
585.879	-0.166451
587.617	-0.120993
589.355	-0.122712
591.092	0.127742
592.828	0.078578
594.564	0.558424
596.301	0.279082
598.037	-0.391378
599.773	0.111173
601.506	-0.560328
603.242	0.676061
604.976	-0.526699
606.711	0.0626259
608.443	0.283073
610.177	-0.116561
611.91	-0.0794535
613.644	0.256467
615.374	0.501157
617.107	0.104375
618.839	0.00512981
620.569	-0.117952
622.3	-0.470875
624.032	0.0445185
625.761	0.0794659
627.491	-0.18139
629.221	0.632524
630.949	0.125078
632.679	0.692275
634.408	0.576093
636.135	0.208491
637.863	-0.0467196
639.592	0.357316
641.318	0.986065
643.045	0.471786
644.77	0.64014
646.497	-0.169686
648.224	0.705727
649.948	0.106542
651.674	0.443051
653.398	-0.0345707
655.123	0.0592937
656.846	0.497183
658.57	0.116438
660.293	0.145234
662.017	0.652145
663.738	-0.23657
665.462	0.311759
667.185	0.606946
668.905	0.169559
670.628	0.327446
672.348	0.647609
674.067	0.718773
675.789	0.631901
677.508	0.592106
679.228	0.713211
680.947	0.971491
682.667	0.147015
684.385	0.838609
686.104	0.515494
687.821	0.881534
689.538	0.578529
691.256	0.343832
692.972	0.454031
694.69	0.0567541
696.406	0.671856
698.121	0.226483
699.837	0.654578
701.552	0.874085
703.268	0.678618
704.982	0.344885
706.695	0.561913
708.41	0.846962
710.123	0.375042
711.836	0.819286
713.55	0.965071
715.262	1.31607
716.973	0.753121
718.685	0.350962
720.398	1.18042
722.108	0.687866
723.818	1.26559
725.53	0.955615
727.24	0.714036
728.949	1.13055
730.658	0.570973
732.369	1.03125
734.077	0.608036
735.785	1.04462
737.493	0.600086
739.2	0.901556
740.909	0.752667
742.616	0.672837
744.322	1.15732
746.028	0.360126
747.734	0.487267
749.441	1.11052
751.146	0.27305
752.851	1.2363
754.555	1.25637
756.26	1.57059
757.963	1.34638
759.667	0.808064
761.372	1.14949
763.075	0.905358
764.777	1.38318
766.479	1.4764
768.181	0.980058
769.883	1.20471
771.584	1.3595
773.285	1.08315
774.986	1.12289
776.686	1.43448
778.386	1.65698
780.085	1.40623
781.785	2.01625
783.484	1.31427
785.182	1.4936
786.881	1.01408
788.579	1.75363
790.276	1.42598
791.974	1.81915
793.671	2.34536
795.367	1.58441
797.064	1.63717
798.76	1.57897
800.456	1.38772
802.151	1.35565
803.846	1.48177
805.541	1.36037
807.236	1.26073
808.93	2.0358
810.624	1.55191
812.317	1.65076
814.01	1.12149
815.703	1.62262
817.394	1.92158
819.086	1.72841
820.778	1.64739
822.47	1.41072
824.161	1.50967
825.852	1.45397
827.543	1.31142
829.231	1.17176
830.921	1.23563
832.611	2.10449
834.3	1.795
835.989	1.44168
837.676	1.44485
839.364	1.67014
841.053	1.89396
842.74	0.820625
844.426	1.22118
846.113	1.06378
847.8	1.60119
849.486	1.44812
851.171	1.29742
852.857	1.46226
854.542	1.58358
856.227	1.705
857.911	0.678838
859.595	1.20188
861.279	0.800656
862.961	0.329762
864.645	1.34464
866.329	0.939013
868.01	0.464864
869.692	0.847094
871.375	1.47728
873.055	1.0471
874.737	0.81978
876.418	0.953485
878.097	0.884116
879.778	0.792056
881.457	1.30915
883.137	0.832231
884.817	0.715434
886.495	0.980973
888.174	0.590486
889.851	0.762535
891.53	1.24841
893.206	1.462
894.884	0.571435
896.562	1.14259
898.237	0.431561
899.914	1.02215
901.589	1.18488
903.265	1.18996
904.94	0.85961
906.615	0.708859
908.289	1.56235
909.964	0.855947
911.637	1.0196
913.31	0.561345
914.984	1.25892
916.656	0.934838
918.33	0.744261
920.001	0.908426
921.674	0.763129
923.345	0.597115
925.015	0.720108
926.687	1.41887
928.357	0.860765
930.028	1.09865
931.698	0.564969
933.366	1.15679
935.037	1.15309
936.705	0.841064
938.373	0.640213
940.043	1.05813
941.71	0.3744
943.379	0.816466
945.046	0.861337
946.712	1.10377
948.378	0.373096
950.046	0.567625
951.711	0.915251
953.376	0.99802
955.043	0.6854
956.708	0.684298
958.372	0.333488
960.036	1.94955
961.701	0.675913
963.364	0.748719
965.027	0.333371
966.69	-0.0628157
968.354	0.53386
970.016	1.06202
971.678	0.704309
973.339	1.18753
975	1.03084
976.661	0.411592
978.324	-0.162139
979.984	0.53685
981.644	1.23587
983.303	0.616581
984.962	1.1464
986.621	1.14271
988.282	1.18136
989.94	0.931163
991.598	0.636337
993.256	0.430017
994.913	0.555135
996.57	0.393424
998.227	0.893351
999.884	0.621198
1001.54	0.855487
1003.2	0.318784
1004.85	0.684135
1006.51	0.23575
1008.16	0.337109
1009.82	0.833636
1011.47	0.869418
1013.12	0.248137
1014.78	0.591742
1016.43	0.650779
1018.08	0.338316
1019.74	0.311252
1021.39	0.525733
1023.04	1.09094
1024.69	0.651629
1026.34	0.824908
1028	0.277148
1029.65	0.602767
1031.3	0.927011
1032.95	0.856415
1034.6	0.631437
1036.25	0.448935
1037.9	0.788699
1039.55	0.997209
1041.19	1.31483
1042.84	0.937814
1044.49	0.389218
1046.14	1.08105
1047.79	0.819027
1049.43	1.21028
1051.08	0.668977
1052.73	0.845254
1054.37	0.848164
1056.02	0.65547
1057.66	0.614578
1059.31	0.529689
1060.95	0.770292
1062.6	0.814411
1064.24	0.444452
1065.88	0.964841
1067.53	0.657975
1069.17	0.350296
1070.81	0.389654
1072.46	0.559067
1074.1	-0.356078
1075.74	0.595816
1077.38	0.334114
1079.02	0.507434
1080.66	0.508048
1082.3	0.335196
1083.94	0.465055
1085.58	0.138045
1087.22	0.957616
1088.86	0.51822
1090.5	0.705108
1092.14	-0.0390882
1093.78	0.405359
1095.42	0.568653
1097.05	0.646242
1098.69	0.165051
1100.33	0.547329
1101.97	0.221058
1103.6	0.11191
1105.24	0.49883
1106.87	0.111984
1108.51	0.327085
1110.15	0.390536
1111.78	0.409389
1113.41	0.297691
1115.05	1.00063
1116.68	0.607874
1118.31	0.237206
1119.95	0.189049
1121.58	0.570183
1123.21	0.138721
1124.85	0.756948
1126.48	0.327619
1128.11	0.989898
1129.74	0.519487
1131.37	0.0497818
1133	0.285916
1134.63	0.11575
1136.26	0.13736
1137.89	0.435705
1139.52	-0.378042
1141.15	-0.402149
1142.78	0.0427294
1144.41	0.167344
1146.04	-0.133855
1147.66	0.290678
1149.29	0.0340586
1150.92	0.608759
1152.55	0.224926
1154.17	0.266731
1155.8	0.350669
1157.43	-0.0974817
1159.05	0.114338
1160.68	0.19929
1162.3	0.136482
1163.93	-0.0954065
1165.55	0.396117
1167.17	0.207022
1168.8	0.527133
1170.42	0.314052
1172.05	0.672761
1173.67	-0.244651
1175.29	-0.0588217
1176.91	0.253393
1178.54	0.0357428
1180.16	-0.265583
1181.78	0.0689592
1183.4	0.0232153
1185.02	-0.254848
1186.64	-0.0477867
1188.26	0.49497
1189.88	0.107301
1191.5	0.434375
1193.12	0.107302
1194.74	0.368149
1196.36	0.334749
1197.97	0.344231
1199.59	0.752784
1201.21	0.452545
1202.83	0.447825
1204.44	-0.201209
1206.06	0.0911903
1207.68	-0.241061
1209.29	0.157143
1210.91	-0.258922
1212.52	0.282682
1214.14	0.196471
1215.75	0.420467
1217.37	0.933471
1218.98	0.155956
1220.6	0.25178
1222.21	0.949492
1223.82	-0.0518532
1225.44	0.626979
1227.05	0.333901
1228.66	1.44899
1230.27	0.662364
1231.88	0.497561
1233.49	0.809402
1235.1	0.688453
1236.72	0.920109
1238.33	0.470674
1239.94	1.24175
1241.55	0.855138
1243.16	0.468001
1244.76	0.928311
1246.37	0.642729
1247.98	0.935491
1249.59	0.689474
1251.2	0.629373
1252.8	0.962501
1254.41	0.71716
1256.02	0.162642
1257.63	0.767704
1259.23	0.505093
1260.84	1.2161
1262.44	1.38972
1264.05	0.817755
1265.66	1.0946
1267.26	0.79046
1268.87	1.08646
1270.47	0.489883
1272.07	1.05333
1273.68	1.42905
1275.28	1.20247
1276.88	1.45163
1278.48	1.14045
1280.09	0.994494
1281.69	1.34506
1283.29	1.2403
1284.89	1.30161
1286.49	1.2191
1288.09	1.22039
1289.69	1.13998
1291.3	1.34941
1292.9	1.08351
1294.49	1.1268
1296.09	1.25136
1297.69	1.64251
1299.29	1.18558
1300.89	1.34615
1302.49	1.01079
1304.09	1.72457
1305.68	1.73718
1307.28	1.07146
1308.88	1.55569
1310.47	1.42409
1312.07	1.33408
1313.66	0.733744
1315.26	1.09589
1316.86	1.60132
1318.45	1.49452
1320.05	1.22468
1321.64	1.48395
1323.23	1.25274
1324.83	1.04054
1326.42	1.4364
1328.01	1.12106
1329.61	1.6372
1331.2	1.46617
1332.79	0.853292
1334.38	1.37439
1335.98	0.584889
1337.57	1.39014
1339.16	1.32709
1340.75	1.56452
1342.34	1.47732
1343.93	1.20728
1345.52	1.11738
1347.11	0.726997
1348.7	0.94006
1350.29	1.23526
1351.87	0.812666
1353.46	1.17231
1355.05	0.813539
1356.64	0.635194
1358.23	0.696248
1359.81	1.01592
1361.4	1.13461
1362.99	1.41187
1364.57	0.950795
1366.16	0.849129
1367.74	0.569145
1369.33	0.708632
1370.91	0.869337
1372.5	1.27017
1374.08	1.03539
1375.67	0.880907
1377.25	0.26885
1378.83	0.810434
1380.42	0.455583
1382	0.0995684
1383.58	0.617481
1385.16	0.577432
1386.75	0.91442
1388.33	0.794499
1389.91	0.357751
1391.49	0.97387
1393.07	0.499367
1394.65	0.878315
1396.23	0.701708
1397.81	0.742542
1399.39	1.09937
1400.97	0.900339
1402.55	0.720688
1404.13	0.758802
1405.7	0.283276
1407.28	1.27163
1408.86	0.699221
1410.44	0.917799
1412.01	1.35343
1413.59	0.978829
1415.17	1.03767
1416.74	0.85892
1418.32	1.36978
1419.89	0.836361
1421.47	0.954304
1423.05	1.03439
1424.62	0.801222
1426.19	0.39223
1427.77	1.5387
1429.34	0.992216
1430.92	1.07466
1432.49	1.35268
1434.06	0.980342
1435.63	1.09942
1437.2	2.20165
1438.78	1.57436
1440.35	2.14723
1441.92	1.93496
1443.49	1.91999
1445.06	1.8858
1446.63	1.51765
1448.2	1.81795
1449.77	1.88269
1451.34	1.51537
1452.91	2.21047
1454.48	2.06044
1456.05	1.37905
1457.62	1.64134
1459.18	1.29226
1460.75	1.63019
1462.32	1.53318
1463.89	1.11986
1465.45	1.02028
1467.02	1.35258
1468.59	1.50816
1470.15	1.31129
1471.72	0.723392
1473.28	1.37249
1474.85	1.25739
1476.41	0.907473
1477.98	0.910637
1479.54	0.600103
1481.11	0.897132
1482.67	0.704069
1484.23	0.530519
1485.8	0.826846
1487.36	0.201777
1488.92	0.593884
1490.48	0.533768
1492.05	0.31516
1493.61	0.504989
1495.17	1.00476
1496.73	0.274644
1498.29	0.207752
1499.85	0.0832376
1501.41	0.445359
1502.97	0.167889
1504.53	0.414956
1506.09	0.584402
1507.65	0.5402
1509.2	0.359821
1510.76	0.294489
1512.32	0.344067
1513.88	0.624092
1515.44	0.595995
1516.99	0.434175
1518.55	0.522798
1520.1	0.362822
1521.66	0.0885801
1523.22	0.273364
1524.77	-0.249423
1526.33	0.486572
1527.88	0.458043
1529.44	0.562135
1530.99	0.532968
1532.55	0.561272
1534.1	0.476758
1535.65	0.941994
1537.21	0.443573
1538.76	0.324382
1540.31	0.733791
1541.86	0.878774
1543.42	0.797526
1544.97	0.885448
1546.52	0.334369
1548.07	1.34157
1549.62	1.25952
1551.17	0.822063
1552.72	1.0407
1554.27	0.979555
1555.82	0.751831
1557.37	1.36613
1558.92	0.881053
1560.47	0.659358
1562.02	0.961642
1563.57	1.2651
1565.11	1.19605
1566.66	1.64961
1568.21	1.00188
1569.75	1.45489
1571.3	1.79555
1572.85	0.959886
1574.39	1.15074
1575.94	1.80832
1577.49	1.6074
1579.03	1.91097
1580.58	1.00158
1582.12	1.64279
1583.67	1.33244
1585.21	1.7702
1586.75	1.27403
1588.3	1.18908
1589.84	1.44066
1591.38	1.09297
1592.93	1.30632
1594.47	1.36963
1596.01	1.41428
1597.55	1.60931
1599.09	1.56143
1600.63	1.88941
1602.18	1.20473
1603.72	1.28923
1605.26	1.31678
1606.8	1.13623
1608.34	1.38594
1609.87	1.67088
1611.41	1.63385
1612.95	1.29427
1614.49	0.991245
1616.03	1.21331
1617.57	1.15437
1619.11	1.50883
1620.64	1.05924
1622.18	1.21045
1623.72	1.00675
1625.25	0.896747
1626.79	0.973191
1628.32	1.38507
1629.86	1.12198
1631.4	1.49352
1632.93	1.52798
1634.47	1.20802
1636	1.09444
1637.53	0.925939
1639.07	0.981912
1640.6	1.41063
1642.14	1.72663
1643.67	2.0598
1645.2	1.64694
1646.73	1.15927
1648.27	1.47097
1649.8	1.8383
1651.33	1.98349
1652.86	1.49924
1654.39	1.42446
1655.92	0.683157
1657.45	1.98043
1658.98	0.960782
1660.51	1.0515
1662.04	1.76966
1663.57	1.70918
1665.1	1.27877
1666.63	1.42151
1668.16	0.97497
1669.69	1.26773
1671.21	1.91181
1672.74	1.58039
1674.27	1.10231
1675.79	0.642677
1677.32	1.02915
1678.85	1.74537
1680.37	1.44852
1681.9	1.00421
1683.42	0.63358
1684.95	0.612136
1686.47	1.14122
1688	1.0103
1689.52	0.879916
1691.05	0.823153
1692.57	0.601821
1694.1	0.819632
1695.62	0.909075
1697.14	0.687542
1698.66	0.100684
1700.19	0.0433683
1701.71	0.368629
1703.23	0.0732403
1704.75	0.123766
1706.27	0.428492
1707.79	0.0416059
1709.32	0.654283
1710.83	0.449327
1712.35	0.317413
1713.88	0.602571
1715.39	-0.0359144
1716.91	0.0320053
1718.43	0.587651
1719.95	0.131061
1721.47	0.342957
1722.99	-0.0038414
1724.5	0.299397
1726.02	-0.152779
1727.54	-0.423305
1729.06	0.332962
1730.57	0.851721
1732.09	0.63186
1733.61	-0.164152
1735.12	-0.0773516
1736.64	0.268521
1738.15	0.640654
1739.67	0.536549
1741.18	0.145756
1742.7	0.158281
1744.21	-0.359446
1745.72	0.302944
1747.24	-0.260377
1748.75	-0.054575
1750.26	-0.233851
1751.78	-0.0717077
1753.29	0.0353384
1754.8	0.460063
1756.31	-0.107717
1757.82	0.376943
1759.34	0.0398693
1760.85	0.12035
1762.36	0.407033
1763.87	0.394281
1765.38	0.0522013
1766.89	0.0275412
1768.4	0.28274
1769.91	-0.194146
1771.41	-0.15381
1772.92	-0.0858774
1774.43	0.296156
1775.94	-0.16738
1777.45	0.115337
1778.96	0.234585
1780.46	0.276927
1781.97	-0.0543108
1783.48	0.249761
1784.98	0.204567
1786.49	0.00574875
1788	0.014967
1789.5	0.025013
1791.01	0.229253
1792.51	-0.0821753
1794.01	0.0190048
1795.52	0.171885
1797.02	0.155816
1798.53	-0.308173
1800.03	0.175391
1801.54	0.192313
1803.04	0.0521498
1804.54	0.181487
1806.04	0.066433
1807.54	0.128017
1809.05	-0.119581
1810.55	0.130266
1812.05	0.11766
1813.55	-0.424458
1815.05	-0.0142946
1816.55	0.122215
1818.05	0.234825
1819.55	-0.0578671
1821.05	0.130342
1822.55	0.0792837
1824.05	0.392899
1825.55	0.121149
1827.05	0.141888
1828.55	0.0187397
1830.04	0.0378056
1831.54	0.227118
1833.04	0.0731516
1834.54	-0.259374
1836.03	-0.121635
1837.53	0.153346
1839.03	-0.0362577
1840.52	0.574759
1842.02	0.189235
1843.51	0.276519
1845.01	0.124393
1846.5	0.263255
1848	-0.502648
1849.49	-0.059083
1850.99	0.230484
1852.48	-0.0418701
1853.97	0.0776043
1855.47	0.302558
1856.96	0.331467
1858.45	-0.104562
1859.94	-0.000525475
1861.44	0.372707
1862.93	0.310926
1864.42	0.297631
1865.91	0.186072
1867.4	0.0995464
1868.89	-0.143507
1870.38	-0.287257
1871.87	0.21505
1873.36	0.0313339
1874.85	0.231576
1876.34	0.261436
1877.83	-0.32862
1879.32	-0.0809565
1880.81	0.128989
1882.3	0.0187531
1882.56	-0.0136728
1884.06	-0.0320854
1885.55	0.279849
1887.04	0.224895
1888.54	0.0476646
1890.03	-0.407546
1891.52	-0.165786
1893.02	0.0947075
1894.51	0.252561
1896	0.0467787
1897.49	-0.0191622
1898.99	-0.380975
1900.48	0.0216312
1901.97	-0.0295973
1903.46	0.247938
1904.95	-0.432193
1906.44	0.173297
1907.93	0.309289
1909.42	0.306898
1910.91	0.166622
1912.4	0.00995159
1913.89	0.460899
1915.38	-0.510153
1916.86	-0.146204
1918.35	-0.0255833
1919.84	-0.165353
1921.33	0.0413065
1922.82	0.421393
1924.3	-0.0980616
1925.79	-0.0450439
1927.28	0.441785
1928.76	-0.126858
1930.25	-0.0722923
1931.74	0.189315
1933.22	0.120497
1934.71	0.0153847
1936.19	0.150981
1937.67	0.319863
1939.16	0.26347
1940.64	-0.258756
1942.13	0.152332
1943.61	-0.143215
1945.09	0.286515
1946.58	-0.0249462
1948.06	-0.267513
1949.54	-0.390012
1951.03	0.605818
1952.51	0.0854025
1953.99	0.528031
1955.47	0.0592747
1956.95	0.0551672
1958.43	-0.0169268
1959.91	0.13475
1961.39	0.475422
1962.87	0.610327
1964.35	-0.402965
1965.83	-0.0972271
1967.31	0.241775
1968.79	-0.42941
1970.27	0.0107641
1971.75	0.0230627
1973.22	0.15476
1974.7	0.235197
1976.18	0.111171
1977.66	-0.353162
1979.13	-0.101913
1980.61	-0.140192
1982.09	0.0253878
1983.56	0.156482
1985.04	-0.10333
1986.52	0.162772
1987.99	-0.130781
1989.47	0.186024
1990.94	-0.241547
1992.41	-0.126506
1993.89	0.513415
1995.36	0.207284
1996.84	-0.148904
1998.31	0.373275
1999.78	0.151851
2001.26	-0.255602
2002.73	0.770494
2004.2	-0.160058
2005.67	0.359699
2007.15	0.643945
2008.62	0.52484
2010.09	0.204633
2011.56	0.339527
2013.03	-0.165158
2014.5	-0.384018
2015.97	0.338652
2017.44	0.656348
2018.91	0.283721
2020.38	0.0453358
2021.85	-0.125763
2023.32	0.442163
2024.79	0.13791
2026.25	0.153706
2027.72	0.154108
2029.19	0.407541
2030.66	0.914001
2032.13	0.213447
2033.59	-0.0842161
2035.06	0.256036
2036.53	-0.193406
2037.99	0.73426
2039.46	-0.321242
2040.92	0.286979
2042.39	0.139205
2043.85	0.378935
2045.32	0.333668
2046.78	0.221755
2048.25	0.110005
2049.71	0.183208
2051.18	-0.0817356
2052.64	0.511797
2054.1	0.0580301
2055.56	0.226583
2057.03	0.309451
2058.49	0.425199
2059.95	0.793362
2061.42	-0.0337801
2062.88	0.167167
2064.34	0.385818
2065.8	-0.0509243
2067.26	-0.0829706
2068.72	0.306294
2070.18	0.39295
2071.64	0.563861
2073.1	0.16219
2074.56	0.231675
2076.02	0.57029
2077.48	0.335987
2078.94	0.202338
2080.39	0.219809
2081.85	0.27041
2083.31	0.438173
2084.77	0.319057
2086.22	0.23295
2087.68	0.297647
2089.14	0.0761852
2090.6	0.442646
2092.05	0.859017
2093.51	0.503006
2094.96	0.44898
2096.42	0.528598
2097.87	0.490223
2099.33	0.786
2100.78	0.194728
2102.24	0.707419
2103.69	0.919646
2105.15	-0.118766
2106.6	0.796944
2108.05	0.945895
2109.51	0.828304
2110.96	0.560182
2112.41	1.15739
2113.86	0.869636
2115.32	0.94672
2116.77	0.557304
2118.22	0.833287
2119.67	0.612258
2121.12	0.924262
2122.57	0.873114
2124.02	0.458628
2125.47	0.857315
2126.92	1.18933
2128.37	0.840572
2129.82	1.35227
2131.27	0.984393
2132.72	1.54304
2134.17	0.893408
2135.62	1.18774
2137.06	1.13624
2138.51	0.888354
2139.96	0.890277
2141.41	0.778102
2142.85	1.13004
2144.3	1.16856
2145.75	1.58792
2147.19	1.44434
2148.64	1.33312
2150.09	1.3866
2151.53	1.88642
2152.97	1.72247
2154.42	1.97186
2155.86	2.17101
2157.31	1.90639
2158.75	1.54321
2160.2	1.59555
2161.64	1.63318
2163.08	1.73909
2164.53	1.78038
2165.97	1.57356
2167.41	1.76507
2168.86	1.97233
2170.3	2.14459
2171.74	2.21482
2173.18	2.19975
2174.62	1.63426
2176.06	1.80009
2177.5	1.99934
2178.94	1.98323
2180.38	1.88506
2181.82	1.82107
2183.26	1.75768
2184.7	1.94405
2186.14	1.41522
2187.58	1.80136
2189.02	1.522
2190.46	1.37567
2191.89	1.7784
2193.33	1.69759
2194.77	1.49881
2196.21	1.13174
2197.64	1.52826
2199.08	1.73965
2200.52	1.61737
2201.95	1.44532
2203.39	1.04195
2204.83	1.13761
2206.26	1.18449
2207.7	1.23185
2209.13	1.37832
2210.57	1.24248
2212	1.17191
2213.43	1.38167
2214.87	0.847739
2216.3	1.68516
2217.73	0.873082
2219.17	0.491745
2220.6	1.0182
2222.03	1.4126
2223.47	0.850445
2224.9	0.781384
2226.33	0.842347
2227.76	1.21391
2229.19	1.17286
2230.62	0.720996
2232.05	1.02369
2233.49	0.900426
2234.91	0.990757
2236.34	0.820734
2237.77	0.799488
2239.2	0.927011
2240.63	0.632355
2242.06	0.812562
2243.49	0.504676
2244.92	0.833226
2246.35	0.508669
2247.78	0.851266
2249.2	0.506826
2250.63	0.60045
2252.06	0.236471
2253.48	0.783004
2254.91	0.614004
2256.34	0.70646
2257.76	0.281921
2259.19	0.590419
2260.61	0.431227
2262.04	0.696316
2263.46	0.524703
2264.89	0.43442
2266.31	0.343659
2267.74	0.707555
2269.16	0.794174
2270.59	0.945174
2272.01	0.411856
2273.43	-0.00785732
2274.85	0.370534
2276.28	0.0323696
2277.7	0.900264
2279.12	0.57859
2280.54	0.321913
2281.97	0.440135
2283.39	0.232038
2284.81	0.448165
2286.23	0.142282
2287.65	0.195784
2289.07	0.886757
2290.49	0.516536
2291.91	0.0155087
2293.33	0.282811
2294.75	0.223093
2296.17	0.45788
2297.59	-0.175097
2299.01	0.158015
2300.42	0.327697
2301.84	-0.0105257
2303.26	0.487899
2304.68	0.379638
2306.1	0.402583
2307.51	-0.166328
2308.93	0.545938
2310.35	0.17287
2311.76	0.193959
2313.18	-0.196316
2314.59	0.23652
2316.01	-0.0376873
2317.43	0.199305
2318.84	-0.205942
2320.26	0.36127
2321.67	-0.0785942
2323.08	-0.190386
2324.5	0.7849
2325.91	0.388229
2327.33	0.287086
2328.74	0.564388
2330.15	0.149797
2331.56	0.0163517
2332.98	0.32841
2334.39	0.229757
2335.8	-0.148286
2337.21	0.0654888
2338.62	0.837163
2340.04	0.276027
2341.45	0.092308
2342.86	0.367854
2344.27	0.331414
2345.68	0.491957
2347.09	-0.0025692
2348.5	0.0273323
2349.91	0.171335
2351.31	-0.0452108
2352.72	-0.164338
2354.13	0.711183
2355.54	0.133625
2356.95	-0.0522604
2358.36	0.0875206
2359.76	0.27585
2361.17	0.0419044
2362.58	0.327237
2363.98	0.287958
2365.39	-0.28516
2366.8	0.38749
2368.21	-0.0384789
2369.61	0.182541
2371.02	0.243277
2372.42	-0.516402
2373.83	-0.0989304
2375.23	0.54387
2376.64	0.381283
2378.04	0.201727
2379.44	0.294071
2380.85	-0.209272
2382.25	0.425573
2383.66	0.0171061
2385.06	-0.0706711
2386.46	-0.0939417
2387.86	-0.116327
2389.26	0.452352
2390.67	0.256591
2392.07	0.110006
2393.47	-0.35367
2394.87	0.249423
2396.27	0.184978
2397.67	0.105289
2399.07	0.0102997
2400.47	-0.401903
2401.87	-0.194232
2403.27	0.124581
2404.67	0.284148
2406.07	0.0459623
2407.47	-0.113588
2408.87	0.0751896
2410.27	0.437833
2411.67	0.0874043
2413.07	0.229001
2414.46	0.419228
2415.86	0.199226
2417.26	-0.114493
2418.66	0.158414
2420.05	-0.154229
2421.45	0.182355
2422.84	-0.0991545
2424.24	0.141886
2425.64	0.0344276
2427.03	0.133466
2428.43	-0.00442505
2429.82	0.0963688
2431.22	-0.214647
2432.61	0.140913
2434.01	0.496298
2435.4	0.723738
2436.79	0.0441208
2438.19	0.36396
2439.58	0.0947466
2440.97	0.0788946
2442.37	0.332412
2443.76	0.363318
2445.15	0.235419
2446.54	0.0440655
2447.93	0.0587692
2449.33	0.358569
2450.72	0.199174
2452.11	0.293658
2453.5	0.0407295
2454.89	0.484811
2456.28	0.23343
2457.67	-0.175793
2459.06	-0.300405
2460.45	0.159619
2461.84	0.112768
2463.23	-0.12446
2464.62	0.254114
2466	-0.0943422
2467.39	-0.0479479
2468.78	0.171916
2470.17	-0.223666
2471.55	-0.130634
2472.94	0.0719347
2474.33	0.179074
2475.72	0.0495014
2477.1	0.34415
2478.49	0.0101147
2479.87	0.273059
2481.26	-0.138459
2482.65	0.421963
2484.03	0.198314
2485.42	0.0211401
2486.8	0.0776024
2488.19	-0.288387
2489.57	0.514647
2490.95	-0.0696611
2492.34	0.265105
2493.72	-0.191741
2495.1	-0.382719
2496.49	0.295729
2497.87	0.18405
2499.25	0.134686
2500.63	-0.00773335
2502.02	-0.0424833
2503.4	-0.124395
2504.78	0.440863
2506.16	-0.135829
2507.54	0.196565
2508.92	0.313123
2510.3	-0.0154982
2511.68	-0.00532913
2513.06	-0.00976849
2514.44	0.124441
2515.82	0.320503
2517.2	-0.354838
2518.58	-0.264516
2519.96	-0.800643
2521.34	0.00754356
2522.72	-0.0100169
2524.1	0.429231
2525.47	-0.336829
2526.85	0.0554066
2528.23	-0.0699172
2529.6	0.0340486
2530.98	-0.0734015
2532.36	0.200644
2533.74	0.0960569
2535.11	0.463118
2536.49	0.00973368
2537.86	-0.201166
2539.24	-0.0787373
2540.61	-0.0330377
2541.99	-0.0483975
2543.36	0.179283
2544.74	-0.0777512
2546.11	0.0152907
2547.49	0.0032897
2548.86	0.12861
2550.23	0.147804
2551.61	0.303133
2552.98	0.336198
2554.35	-0.481512
2555.72	-0.161865
2557.09	0.126801
2558.47	0.248404
2559.84	0.279251
2561.21	0.0529442
2562.58	0.0849338
2563.95	0.178081
2565.32	0.377714
2566.69	-0.149825
2568.06	0.231997
2569.43	0.144031
2570.8	0.419828
2572.17	0.240972
2573.54	0.668522
2574.91	0.201805
2576.28	0.129233
2577.65	0.0869064
2579.02	-0.167914
2580.39	0.0166712
2581.75	0.367664
2583.12	-0.024641
2584.49	0.522824
2585.85	0.342541
2587.22	0.0714779
2588.59	-0.108428
2589.95	-0.106349
2591.32	0.0623031
2592.68	0.412307
2594.05	-0.192926
2595.42	0.0795622
2596.78	0.290338
2598.15	0.364006
2599.51	0.346531
2600.88	0.147873
2602.24	-0.201104
2603.6	0.00938797
2604.97	-0.0212097
2606.33	0.250077
2607.69	0.279595
2609.06	0.112357
2610.42	-0.17631
2611.78	0.301788
2613.14	-0.349719
2614.51	0.396285
2615.87	0.480308
2617.23	-0.200088
2618.59	0.259557
2619.95	0.210385
2621.31	0.161988
2622.67	0.427935
2624.03	0.0964675
2625.39	-0.279376
2626.75	0.180128
2628.11	-0.329882
2629.47	-0.0949178
2630.83	-0.0390325
2632.19	0.195058
2633.55	0.0425353
2634.91	0.439385
2636.26	0.361019
2637.62	0.0308733
2638.98	0.293548
2640.34	0.215698
2641.69	0.0495181
2643.05	-0.204792
2644.41	-0.0747695
2645.76	0.3648
2647.12	-0.125343
2648.48	0.135837
2649.83	0.145646
2651.19	0.434117
2652.54	0.369267
2653.9	0.158075
2655.25	-0.0959687
2656.6	0.193311
2657.96	0.0880871
2659.31	-0.0893264
2660.67	0.143205
2662.02	0.60919
2663.37	0.314596
2664.73	0.0779796
2666.08	0.00144815
2667.43	-0.0899639
2668.78	0.153606
2670.14	-0.0685344
2671.49	0.102708
2672.84	0.332426
2674.19	0.388209
2675.54	0.1542
2676.89	0.0370145
2678.24	0.123574
2679.59	-0.00662661
2680.94	-0.237308
2682.29	0.258017
2683.64	0.145523
2684.99	0.0483718
2686.34	0.0821691
2687.69	0.130331
2689.04	0.0758042
2690.39	-0.0528607
2691.74	-0.125072
2693.08	0.0335393
2694.43	-0.171366
2695.78	0.232482
2697.13	-0.073278
2698.47	0.317463
2699.82	-0.0288196
2701.17	0.538773
2702.51	0.13754
2703.86	0.360102
2705.21	0.177413
2706.55	0.284685
2707.9	0.435345
2709.24	0.382515
2710.58	0.140497
2711.93	0.0288181
2713.27	0.193038
2714.62	0.0375123
2715.96	0.172639
2717.3	0.191358
2718.65	0.500818
2719.99	0.329882
2721.33	0.231225
2722.68	0.233979
2724.02	0.119852
2725.36	0.0781031
2726.71	0.530882
2728.05	0.575796
2729.39	0.576817
2730.73	0.4031
2732.07	0.374887
2733.41	0.0703759
2734.75	0.362458
2736.09	0.349249
2737.43	0.292539
2738.77	0.221268
2740.11	0.0916104
2741.45	0.354124
2742.79	0.557796
2744.13	0.266583
2745.47	0.265534
2746.81	0.133404
2748.14	0.393125
2749.48	0.0578074
2750.82	0.0420194
2752.16	-0.00252104
2753.49	0.344483
2754.83	0.387176
2756.17	0.415488
2757.5	0.183311
2758.84	0.212068
2760.18	-0.0193405
2761.51	0.0102463
2762.85	0.0402579
2764.18	-0.233306
2765.52	0.144216
2766.85	-0.259959
2768.19	0.231948
2769.52	0.245241
2770.86	0.416132
2772.19	0.498875
2773.52	0.349649
2774.86	-0.275558
2776.19	0.353405
2777.52	0.161325
2778.86	0.243292
2780.19	0.0525899
2781.52	0.0204058
2782.85	-0.19822
2784.19	0.271775
2785.52	0.124865
2786.85	0.522586
2788.18	-0.0387478
2789.51	0.245359
2790.84	-0.0849347
2792.17	0.11471
2793.5	0.085948
2794.83	0.171564
2796.16	-0.143242
2797.49	-0.215529
2798.82	-0.0740857
2800.15	-0.161484
2801.48	0.121849
2802.81	0.0767994
2804.13	0.0600519
2805.46	-0.085259
2806.79	0.139117
2808.12	0.618615
2809.45	0.542743
2810.77	0.296618
2812.1	0.321054
2813.43	0.091238
2814.75	0.17486
2816.08	0.118008
2817.41	0.459041
2818.73	0.488774
2820.06	0.0932961
2821.38	0.0517507
2822.71	0.278855
2824.03	0.32112
2825.36	0.405543
2826.68	0.53245
2828	0.334155
2829.33	0.362948
2830.65	0.0241132
2831.98	0.322484
2833.3	0.252746
2834.62	0.64979
2835.94	0.494357
2837.27	0.720496
2838.59	0.790519
2839.91	0.86031
2841.23	0.449475
2842.55	1.02866
2843.87	0.944012
2845.2	1.21336
2846.52	1.38437
2847.84	1.38612
2849.16	1.8119
2850.48	1.54483
2851.8	1.64476
2853.12	1.61697
2854.44	1.65948
2855.76	1.43334
2857.08	1.5463
2858.39	2.05474
2859.71	1.37674
2861.03	1.71543
2862.35	1.4184
2863.67	1.53047
2864.98	2.00909
2866.3	2.12068
2867.62	1.79526
2868.94	2.10488
2870.25	2.35839
2871.57	2.31595
2872.88	2.56921
2874.2	2.69482
2875.52	2.56579
2876.83	2.49213
2878.15	3.23388
2879.46	2.97606
2880.78	2.55016
2882.09	2.98247
2883.41	2.24977
2884.72	3.14711
2886.03	3.01985
2887.35	2.83655
2888.66	2.93352
2889.97	2.80523
2891.29	2.80241
2892.6	3.17742
2893.91	2.97757
2895.22	2.79227
2896.54	2.74784
2897.85	2.9563
2899.16	2.95576
2900.47	3.26372
2901.78	3.44617
2903.09	3.44694
2904.4	3.4898
2905.71	2.88951
2907.02	3.52062
2908.33	3.41116
2909.64	3.31645
2910.95	4.15985
2912.26	3.99574
2913.57	3.55081
2914.88	4.05651
2916.19	3.97254
2917.5	4.32095
2918.81	4.33242
2920.11	4.84723
2921.42	4.67727
2922.73	4.63443
2924.04	4.73272
2925.34	4.99984
2926.65	5.09982
2927.96	5.01809
2929.26	5.03381
2930.57	4.82529
2931.87	4.95182
2933.18	5.38557
2934.49	4.71506
2935.79	4.77149
2937.1	4.75817
2938.4	4.57734
2939.7	4.67623
2941.01	4.38434
2942.31	4.30284
2943.62	4.20847
2944.92	4.50675
2946.22	4.163
2947.53	4.14132
2948.83	3.9514
2950.13	3.84426
2951.43	3.62337
2952.74	3.55473
2954.04	3.79282
2955.34	3.58254
2956.64	3.52709
2957.94	3.61351
2959.24	3.49246
2960.54	3.61202
2961.84	3.31306
2963.15	2.87403
2964.45	2.9954
2965.75	2.62394
2967.05	3.36091
2968.34	3.08495
2969.64	3.38465
2970.94	3.05143
2972.24	2.3525
2973.54	3.17335
2974.84	2.34764
2976.14	2.18267
2977.43	2.04465
2978.73	2.59501
2980.03	2.03152
2981.33	1.91745
2982.62	2.32336
2983.92	2.08251
2985.22	1.94121
2986.51	1.77321
2987.81	2.1124
2989.11	1.66554
2990.4	1.48586
2991.7	1.79759
2992.99	1.1386
2994.29	1.4341
2995.58	1.09632
2996.88	1.22144
2998.17	1.14975
2999.46	1.26068
3000.76	1.28784
3002.05	0.810893
3003.34	1.07724
3004.64	0.699114
3005.93	0.601017
3007.22	0.852363
3008.52	0.892808
3009.81	0.610763
3011.1	0.510021
3012.39	0.506744
3013.68	0.670843
3014.97	0.402905
3016.27	0.358822
3017.56	0.579944
3018.85	0.425555
3020.14	0.201824
3021.43	0.103005
3022.72	0.225752
3024.01	0.555542
3025.3	0.149239
3026.59	0.546782
3027.88	0.196786
3029.16	0.498168
3030.45	0.28925
3031.74	-0.139094
3033.03	0.248273
3034.32	0.11119
3035.6	0.387526
3036.89	0.565829
3038.18	0.0947042
3039.47	0.118135
3040.75	0.181311
3042.04	0.229727
3043.33	0.154588
3044.61	0.326754
3045.9	0.185536
3047.18	0.169471
3048.47	0.332989
3049.75	0.416384
3051.04	0.446577
3052.32	0.586645
3053.61	0.180882
3054.89	0.688599
3056.18	0.131281
3057.46	0.295846
3058.74	0.268743
3060.03	0.323085
3061.31	0.173553
3062.59	0.337836
3063.88	0.625595
3065.16	0.248501
3066.44	0.266943
3067.72	-0.0536771
3069	0.0610833
3070.29	0.583618
3071.57	0.166886
3072.85	0.49699
3074.13	0.295543
3075.41	0.188467
3076.69	0.203381
3077.97	0.327198
3079.25	0.0584021
3080.53	0.27941
3081.81	0.244033
3083.09	-0.319337
3084.37	0.243899
3085.65	-0.00693846
3086.93	-0.0547118
3088.21	-0.0895934
3089.49	0.0920229
3090.76	0.0695834
3092.04	-0.142951
3093.32	-0.00265121
3094.6	-0.255451
3095.87	0.0614896
3097.15	-0.0147796
3098.43	0.41034
3099.7	0.415034
3100.98	0.135117
3102.26	0.112666
3103.53	-0.0178742
3104.81	0.0550957
3106.08	0.0745282
3107.36	0.473663
3108.63	0.508343
3109.91	0.137925
3111.18	0.336871
3112.46	0.0083499
3113.73	-0.0490832
3115	0.367834
3116.28	0.228557
3117.55	0.00697184
3118.83	-0.0393701
3120.1	0.442132
3121.37	-0.284119
3122.64	0.276987
3123.92	-0.178545
3125.19	-0.0513573
3126.46	0.00840139
3127.73	0.379732
3129	0.277878
3130.27	0.243947
3131.55	-0.0602527
3132.82	0.0409136
3134.09	0.0470586
3135.36	0.268644
3136.63	0.273529
3137.9	0.223926
3139.17	0.672387
3140.44	0.00276375
3141.71	-0.087481
3142.98	-0.0161428
3144.24	0.337364
3145.51	0.409115
3146.78	0.0791736
3148.05	0.192292
3149.32	0.278974
