200.43	0.373859
202.244	0.401167
204.059	0.429571
205.873	-0.0519037
207.688	0.245249
209.501	-0.187472
211.314	0.326329
213.127	0.231354
214.941	0.0383444
216.753	0.135774
218.564	-0.299801
220.375	-0.104999
222.186	0.162927
223.999	-0.221377
225.809	0.410107
227.618	0.0264835
229.428	0.487868
231.236	0.489645
233.045	0.587515
234.855	0.637365
236.663	0.182117
238.471	0.0905399
240.278	-0.119236
242.085	-0.134144
243.891	0.503471
245.698	0.272707
247.503	-0.3944
249.309	-0.00191784
251.116	-0.385055
252.921	0.363659
254.725	0.0485048
256.529	-0.218619
258.333	0.406841
260.136	0.117883
261.939	0.288511
263.742	-0.334316
265.544	0.272472
267.346	0.445965
269.148	0.0647259
270.949	-0.196957
272.75	0.0223675
274.55	-0.217804
276.351	0.119019
278.15	-0.100406
279.95	-0.0807505
281.749	0.0812998
283.548	-0.191627
285.346	0.231264
287.144	-0.0195456
288.942	0.497322
290.739	0.175431
292.536	0.166432
294.333	0.0392714
296.129	0.559118
297.925	0.147453
299.721	0.142667
301.514	-0.19675
303.309	-0.202485
305.104	0.339465
306.898	-0.598897
308.692	0.227482
310.486	0.45778
312.279	0.0459118
314.072	0.326303
315.862	0.679761
317.654	0.963588
319.446	0.558201
321.238	0.177429
323.029	-0.15535
324.819	0.323118
326.608	0.4918
328.398	0.732112
330.188	0.422164
331.977	-0.0328255
333.766	0.419351
335.553	0.343163
337.341	0.719378
339.129	-0.246361
340.917	0.269675
342.704	0.593205
344.489	0.342866
346.275	0.427537
348.062	0.20235
349.845	0.0731792
351.631	0.278209
353.416	0.458712
355.201	-0.0298653
356.984	-0.161694
358.768	0.20578
360.552	-0.118959
362.333	0.245933
364.116	-0.175163
365.899	0.140198
367.68	0.382993
369.462	-0.513707
371.243	-0.367184
373.023	0.748369
374.804	-0.0296278
376.585	0.374424
378.363	0.282839
380.143	0.215807
381.923	0.361781
383.7	0.297017
385.479	-0.49523
387.256	0.241681
389.034	0.321329
390.812	0.495777
392.588	0.647432
394.365	0.353453
396.14	-0.104623
397.916	0.11842
399.691	0.294291
401.467	0.305325
403.24	0.0338545
405.015	-0.285275
406.788	0.404683
408.563	0.0607691
410.335	-0.00169849
412.109	0.475616
413.88	0.31956
415.654	0.469193
417.424	0.00946617
419.197	0.254243
420.967	0.0298653
422.739	0.650241
424.508	0.260572
426.279	0.175175
428.048	0.347178
429.819	-0.0212135
431.587	0.267553
433.356	0.415721
435.124	0.259062
436.891	0.172758
438.66	-0.00807381
440.426	0.677984
442.194	0.306172
443.96	0.331162
445.725	0.424601
447.492	0.703921
449.257	0.537946
451.021	0.162044
452.787	0.0438328
454.551	-0.050683
456.314	0.414271
458.079	0.319398
459.842	0.154881
461.604	0.246974
463.368	-0.124489
465.13	0.389387
466.891	0.348144
468.654	-0.201923
470.415	0.24919
472.175	-0.113052
473.935	0.36178
475.696	0.206522
477.456	-0.0207539
479.215	0.518934
480.973	0.475251
482.733	0.0357361
484.491	0.552178
486.249	0.208606
488.006	0.402823
489.765	0.249338
491.522	0.306659
493.278	0.294592
495.034	0.165744
496.789	0.574948
498.544	0.328575
500.301	0.855202
502.056	0.0442533
503.81	0.335133
505.564	0.95438
507.317	0.420706
509.071	0.402623
510.825	1.01831
512.578	0.197154
514.33	0.574605
516.082	0.409551
517.833	0.313977
519.585	0.146985
521.335	0.496341
523.086	0.140346
524.836	0.324341
526.586	0.461177
528.335	0.457197
530.085	0.0781527
531.835	0.870208
533.584	0.279527
535.332	0.273294
537.08	0.26576
538.827	0.46704
540.574	0.526829
542.321	0.236295
544.068	0.737064
545.814	0.0515165
547.56	0.296098
549.305	0.517138
551.05	0.135816
552.795	-0.0363369
554.54	-0.323496
556.282	0.174983
558.025	0.580553
559.769	0.041213
561.512	0.309005
563.255	0.162862
564.997	0.316273
566.739	0.0565958
568.481	-0.293894
570.223	-0.367756
571.964	-0.0962725
573.705	0.268317
575.443	0.244541
577.183	0.359989
578.923	-0.716955
580.663	0.203938
582.402	0.11478
584.141	0.369898
585.879	-0.663634
587.615	0.187463
589.353	0.117475
591.09	-0.183475
592.828	-0.0247726
594.564	-0.23435
596.299	0.0852652
598.035	0.151762
599.771	0.424984
601.506	0.260322
603.242	0.0945415
604.974	-0.187411
606.709	0.0352097
608.443	-0.271349
610.177	0.294424
611.908	0.30947
613.642	-0.0645456
615.374	0.158248
617.105	0.2665
618.837	-0.0609283
620.569	0.022995
622.3	0.174323
624.03	-0.0639706
625.761	0.0406809
627.491	0.123295
629.219	0.116324
630.949	0.339668
632.677	0.656207
634.406	0.699999
636.135	0.560912
637.861	0.534335
639.59	0.117255
641.318	0.450477
643.043	-0.0395041
644.77	0.289847
646.495	0.163897
648.222	0.0170813
649.948	0.782122
651.672	0.482652
653.398	0.414066
655.121	0.507791
656.846	0.694954
658.569	0.473166
660.293	0.775359
662.015	0.597032
663.738	0.530515
665.46	0.735975
667.183	0.413741
668.903	0.204999
670.626	0.614415
672.346	0.133391
674.067	0.29528
675.787	0.367719
677.508	0.303829
679.226	0.400743
680.947	0.795822
682.665	0.338612
684.385	0.546391
686.102	0.752459
687.821	0.565556
689.538	0.354529
691.254	0.925986
692.972	0.782752
694.688	0.615792
696.406	0.171614
698.121	0.417202
699.835	0.638432
701.552	0.444365
703.266	0.571415
704.98	0.881355
706.695	0.846068
708.409	0.489397
710.121	0.407889
711.836	0.738246
713.548	1.11349
715.26	0.916538
716.973	0.628549
718.685	0.843024
720.396	1.0345
722.108	0.906966
723.818	0.893487
725.528	1.17545
727.238	0.797961
728.949	1.50996
730.658	0.791948
732.367	1.25266
734.075	0.78462
735.785	0.498364
737.493	0.958169
739.2	1.12448
740.907	0.885683
742.614	1.45933
744.322	1.22312
746.028	1.28109
747.734	1.31789
749.439	1.37849
751.144	0.540689
752.849	0.648781
754.555	0.870649
756.26	0.959002
757.963	1.04889
759.667	1.18533
761.37	1.34559
763.073	1.41638
764.775	1.30641
766.477	1.08224
768.179	0.923938
769.883	1.48706
771.584	1.23431
773.285	1.74899
774.986	2.01441
776.686	1.37593
778.386	2.0049
780.085	2.02497
781.785	1.70685
783.484	1.8866
785.182	0.978819
786.881	2.0381
788.579	1.07978
790.276	1.61202
791.974	1.80186
793.671	1.89941
795.367	1.56786
797.064	1.59839
798.76	1.45029
800.456	1.30414
802.151	1.227
803.846	1.64534
805.541	1.34387
807.234	1.98563
808.928	1.68236
810.622	2.07398
812.315	1.76895
814.008	1.95674
815.701	2.23352
817.394	1.27955
819.086	2.22691
820.778	1.8107
822.468	1.97569
824.159	2.02972
825.85	1.70627
827.541	2.00889
829.231	1.42329
830.921	1.88741
832.609	1.8867
834.298	2.51227
835.987	1.31067
837.676	1.87059
839.364	1.69313
841.051	1.60333
842.738	1.08768
844.426	1.50986
846.113	2.06696
847.798	1.79885
849.484	1.42101
851.171	1.24657
852.857	1.09607
854.54	1.50711
856.226	1.73921
857.911	1.81332
859.593	0.828322
861.278	1.41639
862.961	1.62059
864.645	1.50817
866.327	1.32714
868.01	0.716957
869.692	1.7976
871.373	1.47977
873.055	0.732983
874.735	1.13667
876.416	1.02143
878.097	1.10932
879.776	1.21971
881.457	0.923435
883.135	1.52949
884.815	1.52495
886.495	1.09022
888.172	0.947557
889.851	1.14178
891.528	0.680799
893.206	1.0975
894.882	1.39992
896.56	1.31858
898.237	1.708
899.912	1.17597
901.589	1.07005
903.263	0.650591
904.94	0.656604
906.614	0.79675
908.289	1.13776
909.962	1.03346
911.635	0.796766
913.31	0.850105
914.982	0.659457
916.656	1.15689
918.328	1.34307
920.001	0.687613
921.672	0.874505
923.345	0.200049
925.015	0.632505
926.685	0.823292
928.357	1.17001
930.026	1.14261
931.698	0.829078
933.366	0.979178
935.035	0.864723
936.705	1.45645
938.373	0.703633
940.041	0.900319
941.71	0.568762
943.377	0.524607
945.044	0.789321
946.712	0.611614
948.378	0.873693
950.044	0.780807
951.709	1.19423
953.376	0.614937
955.041	1.27219
956.706	0.454557
958.372	0.389567
960.036	0.591932
961.699	1.08318
963.362	0.735107
965.027	0.0532904
966.69	1.02786
968.352	0.451309
970.014	0.226821
971.676	0.178548
973.339	1.12584
975	0.636919
976.661	0.658335
978.322	0.747545
979.982	0.428079
981.642	0.108101
983.303	0.639125
984.962	0.858494
986.621	1.07583
988.28	0.848794
989.938	0.443854
991.596	0.856438
993.254	0.141932
994.911	0.885245
996.57	0.193799
998.227	0.914275
999.884	1.01669
1001.54	0.876359
1003.2	1.24196
1004.85	0.419204
1006.51	0.366648
1008.16	0.79738
1009.82	0.766989
1011.47	0.824776
1013.12	0.707599
1014.78	0.766172
1016.43	0.212101
1018.08	0.774987
1019.74	0.528886
1021.39	0.6119
1023.04	0.76149
1024.69	0.605987
1026.34	0.735168
1028	0.558466
1029.65	1.03662
1031.3	0.465064
1032.95	0.460033
1034.6	0.388023
1036.25	0.445635
1037.9	0.676662
1039.54	0.515412
1041.19	0.855291
1042.84	0.717731
1044.49	0.299539
1046.14	1.16496
1047.78	0.815709
1049.43	0.164054
1051.08	0.729807
1052.72	0.0365028
1054.37	0.16898
1056.02	0.692752
1057.66	0.759963
1059.31	0.761513
1060.95	0.545007
1062.6	0.436476
1064.24	0.566268
1065.88	0.65157
1067.53	0.561933
1069.17	0.362798
1070.81	-0.0322332
1072.45	0.44122
1074.1	0.176983
1075.74	0.499523
1077.38	0.34604
1079.02	-0.0447741
1080.66	0.519268
1082.3	0.21594
1083.94	0.649056
1085.58	0.278468
1087.22	0.404612
1088.86	0.0306683
1090.5	0.131666
1092.14	-0.114464
1093.78	0.265691
1095.42	0.105882
1097.05	0.701589
1098.69	0.242146
1100.33	0.473805
1101.96	-0.110659
1103.6	0.33947
1105.24	0.468012
1106.87	0.145425
1108.51	0.596837
1110.14	0.0580645
1111.78	0.59282
1113.41	0.545566
1115.05	0.239554
1116.68	0.512609
1118.31	0.185112
1119.95	0.287153
1121.58	0.347167
1123.21	0.108483
1124.85	0.619725
1126.48	0.42564
1128.11	0.317926
1129.74	0.595779
1131.37	0.767224
1133	0.511389
1134.63	0.212729
1136.26	0.533371
1137.89	0.382824
1139.52	0.380762
1141.15	-0.177341
1142.78	0.203536
1144.41	0.413514
1146.04	-0.420676
1147.66	-0.336998
1149.29	0.301326
1150.92	-0.146512
1152.55	-0.232106
1154.17	-0.0837727
1155.8	0.00026989
1157.43	0.360722
1159.05	0.040659
1160.68	0.572116
1162.3	0.105134
1163.93	0.29826
1165.55	0.0666361
1167.17	0.111195
1168.8	-0.482991
1170.42	-0.398265
1172.05	0.300805
1173.67	0.955006
1175.29	0.567503
1176.91	-0.116709
1178.54	0.492435
1180.16	0.445145
1181.78	0.208381
1183.4	0.183949
1185.02	-0.17848
1186.64	0.0710831
1188.26	-0.187557
1189.88	-0.00484657
1191.5	0.133628
1193.12	-0.00296497
1194.74	0.153974
1196.36	0.457253
1197.97	-0.265399
1199.59	0.144609
1201.21	0.0544491
1202.83	0.196533
1204.44	0.486946
1206.06	-0.264038
1207.68	0.34248
1209.29	-0.114711
1210.91	0.282632
1212.52	-0.551867
1214.14	0.633733
1215.75	-0.037488
1217.37	0.434918
1218.98	-0.00893211
1220.59	0.585962
1222.21	0.620343
1223.82	0.925206
1225.43	0.175095
1227.05	0.855173
1228.66	0.977447
1230.27	1.10086
1231.88	0.956677
1233.49	0.77239
1235.1	0.692657
1236.72	1.50286
1238.33	1.59076
1239.94	1.4933
1241.55	0.713426
1243.16	0.636276
1244.76	0.475612
1246.37	1.30725
1247.98	1.35159
1249.59	1.37446
1251.2	1.4177
1252.8	0.944002
1254.41	1.195
1256.02	1.2402
1257.62	0.976317
1259.23	1.1273
1260.84	1.71395
1262.44	1.20401
1264.05	1.10803
1265.66	1.15665
1267.26	1.16313
1268.86	1.58334
1270.47	0.80004
1272.07	1.32192
1273.67	1.78052
1275.28	1.71976
1276.88	1.14003
1278.48	1.49201
1280.09	1.69815
1281.69	1.38638
1283.29	1.17841
1284.89	1.90171
1286.49	1.65379
1288.09	1.88242
1289.69	1.76062
1291.29	1.74268
1292.89	1.20814
1294.49	1.82989
1296.09	1.87178
1297.69	1.43721
1299.29	1.02205
1300.89	1.24508
1302.49	1.23996
1304.08	1.6455
1305.68	1.18604
1307.28	1.8155
1308.88	1.56116
1310.47	2.02462
1312.07	2.13946
1313.66	1.82536
1315.26	0.879396
1316.85	1.24265
1318.45	1.7079
1320.04	1.86655
1321.64	0.80186
1323.23	1.79299
1324.83	1.82491
1326.42	1.87562
1328.01	2.06749
1329.61	1.12556
1331.2	1.94692
1332.79	2.02126
1334.38	2.01705
1335.97	1.4899
1337.56	1.66981
1339.16	1.4659
1340.75	2.06631
1342.34	0.651198
1343.93	1.60902
1345.52	1.72028
1347.11	0.467849
1348.7	0.742058
1350.29	1.97865
1351.87	1.17599
1353.46	1.29584
1355.05	1.257
1356.64	1.03872
1358.22	1.47938
1359.81	1.04018
1361.4	0.959596
1362.98	1.09771
1364.57	0.836589
1366.16	0.79516
1367.74	1.05322
1369.33	0.277083
1370.91	0.935576
1372.5	0.679801
1374.08	0.584294
1375.67	0.807788
1377.25	0.9518
1378.83	0.936156
1380.41	1.09863
1382	0.782379
1383.58	0.683815
1385.16	0.584393
1386.74	0.862099
1388.33	0.762371
1389.91	0.941232
1391.49	0.565212
1393.07	0.666249
1394.65	0.827105
1396.23	0.610975
1397.81	0.354671
1399.39	0.672276
1400.97	0.77085
1402.55	0.314509
1404.13	0.274081
1405.7	0.965762
1407.28	1.06466
1408.86	0.196157
1410.44	0.573068
1412.01	0.396824
1413.59	0.516261
1415.17	1.04912
1416.74	0.791822
1418.32	0.711802
1419.89	1.02613
1421.47	0.770142
1423.04	0.574841
1424.62	1.32587
1426.19	0.739672
1427.77	0.468895
1429.34	0.847407
1430.91	0.516526
1432.49	1.38505
1434.06	0.875126
1435.63	1.21073
1437.2	1.56597
1438.78	1.78414
1440.35	1.17779
1441.92	1.31926
1443.49	1.61863
1445.06	2.13461
1446.63	1.01942
1448.2	1.86993
1449.77	1.9345
1451.34	2.49112
1452.91	1.71118
1454.48	2.44594
1456.05	1.9021
1457.62	1.57387
1459.18	2.09059
1460.75	1.7987
1462.32	1.42633
1463.89	1.30826
1465.45	1.75922
1467.02	0.932458
1468.59	1.7561
1470.15	0.911758
1471.72	0.324153
1473.28	0.345824
1474.85	1.15256
1476.41	1.17517
1477.98	1.33512
1479.54	0.710884
1481.1	0.61589
1482.67	0.246487
1484.23	0.954729
1485.79	0.369447
1487.36	0.665068
1488.92	0.763513
1490.48	0.41012
1492.04	0.407146
1493.61	1.1444
1495.17	0.707767
1496.73	0.329593
1498.29	0.0105352
1499.85	0.470144
1501.41	0.619017
1502.97	0.225663
1504.53	0.182622
1506.09	0.488346
1507.65	0.21276
1509.2	0.381146
1510.76	0.335838
1512.32	0.366928
1513.88	-0.0643473
1515.43	0.255276
1516.99	0.344242
1518.55	0.337814
1520.1	0.0637808
1521.66	0.575052
1523.22	0.492385
1524.77	0.23737
1526.33	0.229933
1527.88	0.335934
1529.44	0.460123
1530.99	0.963675
1532.54	0.556161
1534.1	-0.152464
1535.65	0.541224
1537.21	0.950803
1538.76	0.850574
1540.31	0.750909
1541.86	1.02829
1543.42	0.796903
1544.97	0.734981
1546.52	0.635414
1548.07	0.761045
1549.62	0.923862
1551.17	0.768184
1552.72	1.06225
1554.27	1.50618
1555.82	0.774156
1557.37	0.642032
1558.92	1.25817
1560.47	0.364746
1562.02	1.35707
1563.56	1.23118
1565.11	1.32972
1566.66	1.20446
1568.21	1.34024
1569.75	1.51299
1571.3	1.33072
1572.85	1.55882
1574.39	1.18941
1575.94	1.30538
1577.49	1.21618
1579.03	1.46342
1580.57	1.09511
1582.12	1.26902
1583.66	1.36909
1585.21	1.07749
1586.75	1.347
1588.3	1.7104
1589.84	1.6061
1591.38	1.25793
1592.92	1.69551
1594.47	1.38384
1596.01	1.42799
1597.55	0.966509
1599.09	1.55528
1600.63	1.50746
1602.17	1.40373
1603.71	1.882
1605.25	1.57102
1606.79	1.67192
1608.33	1.05671
1609.87	1.77372
1611.41	1.77417
1612.95	1.37826
1614.49	1.50701
1616.03	1.93525
1617.57	1.50115
1619.1	1.16232
1620.64	0.731539
1622.18	1.10737
1623.72	0.622664
1625.25	1.13022
1626.79	0.682445
1628.32	0.963389
1629.86	1.33632
1631.39	0.829452
1632.93	1.64892
1634.46	1.01165
1636	1.15943
1637.53	1.58768
1639.07	1.08404
1640.6	2.16494
1642.13	1.6609
1643.67	1.3983
1645.2	2.21413
1646.73	1.80062
1648.26	1.74043
1649.8	2.33057
1651.33	1.9003
1652.86	1.8056
1654.39	1.60085
1655.92	2.15679
1657.45	1.58207
1658.98	1.89604
1660.51	2.06034
1662.04	1.85298
1663.57	2.05143
1665.1	2.1012
1666.63	1.80057
1668.16	1.61209
1669.68	1.51745
1671.21	1.51645
1672.74	1.55336
1674.27	1.66437
1675.79	1.40691
1677.32	1.59053
1678.85	1.69936
1680.37	1.08999
1681.9	1.28907
1683.42	1.15703
1684.95	1.50233
1686.47	1.00392
1688	1.14801
1689.52	0.962577
1691.05	0.997275
1692.57	0.940504
1694.09	0.95689
1695.62	1.02794
1697.14	0.641861
1698.66	0.876781
1700.18	0.60001
1701.71	0.213684
1703.23	0.173654
1704.75	0.315283
1706.27	0.365294
1707.79	0.105898
1709.31	0.246466
1710.83	0.804245
1712.35	0.436475
1713.87	-0.0754852
1715.39	0.264271
1716.91	-0.282899
1718.43	0.164722
1719.95	0.0156136
1721.47	0.173616
1722.99	-0.136907
1724.5	0.436687
1726.02	0.146418
1727.54	0.32559
1729.06	-0.160295
1730.57	0.0409679
1732.09	0.0467548
1733.61	0.279591
1735.12	-0.0639286
1736.64	0.170555
1738.15	0.104922
1739.67	0.205343
1741.18	0.0968924
1742.7	0.03053
1744.21	0.495573
1745.72	0.127072
1747.24	0.407093
1748.75	-0.0147629
1750.26	0.320799
1751.77	-0.017333
1753.29	0.525764
1754.8	0.00222397
1756.31	0.127597
1757.82	0.0776939
1759.33	-0.0571184
1760.84	0.282598
1762.36	-0.430871
1763.87	0.169805
1765.38	0.294224
1766.89	0.131649
1768.4	0.0311031
1769.91	-0.491371
1771.41	-0.00867462
1772.92	-0.235534
1774.43	0.0977402
1775.94	0.288633
1777.45	0.0067606
1778.95	0.0332708
1780.46	-0.101254
1781.97	-0.162245
1783.48	-0.214309
1784.98	0.0616865
1786.49	-0.00261497
1787.99	0.229566
1789.5	0.1388
1791.01	-0.263523
1792.51	-0.261873
1794.01	0.167167
1795.52	-0.0676203
1797.02	-0.0509596
1798.53	0.154474
1800.03	-0.0275707
1801.53	0.236732
1803.04	-0.115157
1804.54	-0.0904217
1806.04	0.176433
1807.54	0.406001
1809.05	0.0739317
1810.55	0.136828
1812.05	-0.209999
1813.55	0.164583
1815.05	-0.478834
1816.55	0.0595522
1818.05	0.0688696
1819.55	0.126512
1821.05	0.088728
1822.55	0.33535
1824.05	0.291873
1825.55	0.228372
1827.05	0.0841713
1828.55	0.0519629
1830.04	0.207012
1831.54	-0.198295
1833.04	0.244116
1834.54	0.0192804
1836.03	-0.00299263
1837.53	-0.0601902
1839.03	0.0230913
1840.52	0.0703087
1842.02	0.13744
1843.51	0.0177631
1845.01	-0.153379
1846.5	0.439938
1848	0.19829
1849.49	0.141474
1850.99	-0.136661
1852.48	0.0613718
1853.97	-0.0273466
1855.47	0.380441
1856.96	0.106666
1858.45	0.300265
1859.94	0.134028
1861.44	0.0819778
1862.93	0.279792
1864.42	0.319357
1865.91	0.22259
1867.4	0.42091
1868.89	0.173194
1870.38	0.271651
1871.87	0.316885
1873.36	0.0508175
1874.85	0.131643
1876.34	0.2096
1877.83	0.240729
1879.32	0.1164
1880.81	0.43781
1882.3	0.406631
1882.57	0.384385
1884.07	-0.0877428
1885.56	0.223912
1887.06	0.15132
1888.55	0.617982
1890.04	0.371027
1891.54	0.681746
1893.03	0.36791
1894.52	0.0906258
1896.02	0.631939
1897.51	0.252441
1899	0.60326
1900.49	0.483467
1901.98	0.327339
1903.47	0.395702
1904.96	0.306231
1906.45	0.407242
1907.94	0.00455856
1909.43	0.418598
1910.92	0.364709
1912.41	0.381068
1913.9	0.276531
1915.39	0.466887
1916.88	0.136743
1918.37	0.256898
1919.85	0.151332
1921.34	0.461455
1922.83	0.165739
1924.32	0.303782
1925.8	0.16586
1927.29	0.634835
1928.78	0.342656
1930.26	0.413997
1931.75	0.38067
1933.23	-0.0349503
1934.72	0.29234
1936.2	0.133403
1937.69	0.284792
1939.17	0.349187
1940.66	0.862723
1942.14	0.18574
1943.63	0.338375
1945.11	0.508925
1946.59	0.283213
1948.07	0.298671
1949.56	0.485678
1951.04	0.396091
1952.52	0.495013
1954	0.180594
1955.48	0.175839
1956.96	0.30883
1958.45	0.0647268
1959.93	0.507698
1961.41	0.487815
1962.89	0.656658
1964.37	0.431123
1965.85	0.171059
1967.32	-0.397436
1968.8	0.248571
1970.28	0.209501
1971.76	0.289799
1973.24	0.352861
1974.72	0.671756
1976.19	0.138201
1977.67	0.201647
1979.15	0.282113
1980.63	0.294404
1982.1	0.221524
1983.58	0.182436
1985.05	0.465572
1986.53	0.205336
1988	0.1658
1989.48	-0.00885677
1990.95	0.257327
1992.43	0.236537
1993.9	0.0307302
1995.38	0.130003
1996.85	0.145126
1998.32	0.24463
1999.8	-0.280974
2001.27	0.155164
2002.74	0.16879
2004.22	-0.188581
2005.69	0.212941
2007.16	0.463218
2008.63	0.478489
2010.1	0.292539
2011.57	0.325954
2013.04	0.0564365
2014.51	0.190481
2015.98	0.222809
2017.45	-0.098896
2018.92	0.553931
2020.39	-0.0881224
2021.86	0.160398
2023.33	0.392198
2024.8	0.305753
2026.27	0.47208
2027.74	0.170092
2029.2	0.104296
2030.67	-0.044199
2032.14	0.378651
2033.61	0.751859
2035.07	0.335997
2036.54	0.507458
2038.01	0.443263
2039.47	0.345056
2040.94	0.465298
2042.4	0.0815277
2043.87	0.337383
2045.33	0.308208
2046.8	0.380718
2048.26	0.436731
2049.72	0.340782
2051.19	0.479845
2052.65	0.17904
2054.12	-0.0560341
2055.58	0.213262
2057.04	0.211478
2058.5	0.192135
2059.97	0.324276
2061.43	0.204144
2062.89	0.522482
2064.35	0.471376
2065.81	0.337072
2067.27	0.405499
2068.73	0.440813
2070.19	0.156589
2071.65	0.512088
2073.11	0.396089
2074.57	0.330333
2076.03	0.466339
2077.49	0.534653
2078.95	0.0300341
2080.41	0.60272
2081.87	0.669666
2083.32	0.33197
2084.78	0.767826
2086.24	0.748512
2087.7	0.442788
2089.15	0.489878
2090.61	0.75509
2092.07	0.600253
2093.52	0.747512
2094.98	0.860816
2096.43	0.755623
2097.89	0.884392
2099.34	0.828289
2100.8	0.537868
2102.25	0.699274
2103.71	0.59408
2105.16	0.723877
2106.61	0.637992
2108.07	0.886707
2109.52	0.785433
2110.97	1.13375
2112.43	0.564062
2113.88	0.809332
2115.33	0.969541
2116.78	1.02888
2118.23	0.972202
2119.68	1.21569
2121.13	0.979714
2122.59	1.06091
2124.04	1.62437
2125.49	1.12717
2126.94	1.27636
2128.39	1.209
2129.83	1.60427
2131.28	1.53413
2132.73	1.5957
2134.18	1.2767
2135.63	1.28954
2137.08	1.40302
2138.53	1.5183
2139.97	1.2719
2141.42	1.50642
2142.87	1.90763
2144.31	1.69771
2145.76	1.28912
2147.21	2.20447
2148.65	2.10947
2150.1	2.22884
2151.54	1.9164
2152.99	1.83484
2154.43	2.08381
2155.88	1.85183
2157.32	1.75251
2158.77	2.63127
2160.21	1.65614
2161.65	2.47212
2163.1	1.98095
2164.54	2.38669
2165.98	1.88072
2167.43	2.40401
2168.87	2.47795
2170.31	2.30054
2171.75	2.27047
2173.19	2.50449
2174.64	2.17147
2176.07	2.22045
2177.52	2.08676
2178.96	2.31967
2180.4	2.20448
2181.84	2.20659
2183.28	2.55854
2184.72	2.49508
2186.15	1.71633
2187.59	1.81919
2189.03	2.17176
2190.47	2.12495
2191.91	1.74486
2193.35	2.16311
2194.78	1.69754
2196.22	2.01256
2197.66	1.87607
2199.09	1.8876
2200.53	1.64883
2201.97	2.12417
2203.4	1.42163
2204.84	1.9978
2206.27	1.6795
2207.71	1.7099
2209.14	1.50823
2210.58	1.73627
2212.01	1.21869
2213.45	1.27958
2214.88	1.65409
2216.31	1.63259
2217.75	1.01838
2219.18	1.51081
2220.61	0.899215
2222.05	1.24397
2223.48	1.17591
2224.91	1.32059
2226.34	1.43046
2227.78	1.20968
2229.21	0.988064
2230.64	0.634942
2232.07	1.29834
2233.5	0.962131
2234.93	0.790864
2236.36	0.8171
2237.79	0.82848
2239.22	0.580605
2240.65	0.628395
2242.08	1.00404
2243.5	0.79368
2244.93	0.567305
2246.36	0.650191
2247.79	0.959874
2249.22	0.810828
2250.64	0.659822
2252.07	0.523678
2253.5	0.614687
2254.92	0.510883
2256.35	0.538483
2257.78	0.53581
2259.2	0.730479
2260.63	0.376245
2262.05	0.640847
2263.48	0.825974
2264.9	0.377767
2266.33	0.465296
2267.75	0.747391
2269.18	0.62198
2270.6	0.609704
2272.02	0.564386
2273.45	-0.0674133
2274.87	0.668949
2276.29	0.574864
2277.71	0.448297
2279.14	0.452141
2280.56	0.178714
2281.98	0.345431
2283.4	0.153229
2284.82	0.630046
2286.24	0.340129
2287.66	0.311636
2289.08	0.136521
2290.5	0.713294
2291.92	0.440743
2293.34	0.151714
2294.76	0.385984
2296.18	0.21116
2297.6	0.281775
2299.02	0.10676
2300.44	0.423467
2301.86	0.707938
2303.27	0.599209
2304.69	0.195045
2306.11	0.168125
2307.53	0.255883
2308.94	0.343228
2310.36	0.462987
2311.78	0.500214
2313.19	0.307086
2314.61	-0.0833063
2316.02	-0.0452161
2317.44	-0.0228825
2318.85	0.0987678
2320.27	0.170842
2321.68	0.208974
2323.1	0.377444
2324.51	0.461276
2325.92	0.740961
2327.34	0.524138
2328.75	0.554067
2330.16	0.468868
2331.58	0.121187
2332.99	-0.159388
2334.4	0.0051837
2335.81	0.038281
2337.23	-0.142854
2338.64	-0.193205
2340.05	-0.0308928
2341.46	-0.0666418
2342.87	-0.0371375
2344.28	0.107107
2345.69	0.136693
2347.1	0.100986
2348.51	-0.0819755
2349.92	0.356555
2351.33	0.156256
2352.74	0.331014
2354.15	-0.148056
2355.55	0.33489
2356.96	0.116414
2358.37	0.0122275
2359.78	-0.172856
2361.19	0.113194
2362.59	-0.136376
2364	-0.25596
2365.41	-0.0679564
2366.81	0.0713406
2368.22	-0.144274
2369.62	-0.0359735
2371.03	0.0410924
2372.44	-0.0579615
2373.84	0.0694013
2375.24	-0.189325
2376.65	0.179291
2378.05	0.0802326
2379.46	0.140584
2380.86	-0.201971
2382.26	0.400981
2383.67	0.313073
2385.07	0.209193
2386.47	0.0659981
2387.88	-0.0760512
2389.28	0.0144258
2390.68	0.201446
2392.08	0.0708628
2393.48	-0.0586686
2394.89	0.353395
2396.29	0.129857
2397.69	0.129541
2399.09	0.0979714
2400.49	0.082746
2401.89	0.194871
2403.29	-0.137673
2404.69	-0.232264
2406.09	0.00577641
2407.48	-0.0427737
2408.88	0.130061
2410.28	-0.0304284
2411.68	0.237213
2413.08	0.0936265
2414.48	0.410426
2415.87	0.364381
2417.27	0.129585
2418.67	-0.199458
2420.06	0.184366
2421.46	-0.160431
2422.86	-0.030375
2424.25	0.00441456
2425.65	0.308666
2427.04	0.248963
2428.44	0.0314999
2429.83	-0.0901093
2431.23	0.534548
2432.62	0.0486751
2434.02	0.308323
2435.41	-0.0048027
2436.81	0.300288
2438.2	0.127364
2439.59	0.0327535
2440.99	-0.142007
2442.38	0.159108
2443.77	-0.0480218
2445.16	0.252416
2446.56	0.0451264
2447.95	0.202383
2449.34	0.296132
2450.73	-0.0533161
2452.12	-0.0696321
2453.51	0.152097
2454.9	0.0580974
2456.29	0.0754724
2457.68	0.124756
2459.07	0.126431
2460.46	-0.0147457
2461.85	0.00152206
2463.24	0.0328875
2464.63	0.142712
2466.02	0.283767
2467.4	0.266768
2468.79	0.281292
2470.18	0.200992
2471.57	0.0415425
2472.95	0.00768423
2474.34	0.00467062
2475.73	0.15839
2477.12	0.327256
2478.5	0.0875068
2479.89	-0.0261698
2481.27	0.15839
2482.66	0.10759
2484.04	0.0251355
2485.43	-0.24563
2486.81	0.154932
2488.2	-0.148562
2489.58	0.373984
2490.97	-0.209922
2492.35	0.327278
2493.73	-0.113958
2495.12	0.0828786
2496.5	-0.12249
2497.88	0.246261
2499.27	-0.344903
2500.65	-0.146725
2502.03	0.158641
2503.41	-0.016047
2504.79	0.0401797
2506.17	0.203595
2507.56	0.427997
2508.94	-0.11662
2510.32	0.138871
2511.7	-0.0811582
2513.08	0.00646544
2514.46	-0.150345
2515.84	-0.168416
2517.22	0.0589495
2518.59	0.485292
2519.97	0.238999
2521.35	0.175983
2522.73	0.00559759
2524.11	0.00246763
2525.49	0.212071
2526.86	-0.233659
2528.24	-0.1762
2529.62	0.155836
2530.99	0.0633869
2532.37	0.230819
2533.75	0.232302
2535.12	0.128072
2536.5	0.145332
2537.88	0.313882
2539.25	0.329623
2540.63	0.207956
2542	0.253005
2543.38	-0.0506611
2544.75	0.207844
2546.12	0.133711
2547.5	0.0606723
2548.87	0.124904
2550.24	0.128504
2551.62	0.192366
2552.99	0.0732913
2554.36	0.19611
2555.74	0.227059
2557.11	0.1665
2558.48	0.196848
2559.85	0.060679
2561.22	0.137239
2562.59	-0.0432758
2563.96	0.110133
2565.34	-0.11493
2566.71	0.205772
2568.08	0.117393
2569.45	0.0441699
2570.82	0.243768
2572.18	-0.102252
2573.55	0.218746
2574.92	-0.0665216
2576.29	0.300126
2577.66	0.0147791
2579.03	0.517678
2580.4	0.14081
2581.77	0.112331
2583.13	0.0532036
2584.5	0.130323
2585.87	0.192227
2587.23	0.330015
2588.6	0.195154
2589.97	-0.0608258
2591.33	-0.135047
2592.7	0.138822
2594.06	0.699685
2595.43	0.0478115
2596.79	0.333985
2598.16	0.165322
2599.52	0.0721235
2600.89	-0.0510788
2602.25	0.0226254
2603.62	0.368566
2604.98	-0.311354
2606.34	-0.251498
2607.71	0.00404549
2609.07	-0.23873
2610.43	-0.181037
2611.79	-0.0192084
2613.16	0.0511222
2614.52	0.225782
2615.88	-0.095294
2617.24	0.259044
2618.6	0.119051
2619.96	0.30919
2621.32	-0.0236173
2622.68	0.00311089
2624.04	0.253979
2625.4	0.235866
2626.76	0.128075
2628.12	-0.337473
2629.48	0.105669
2630.84	-0.225687
2632.2	0.394787
2633.56	0.345809
2634.92	0.0742636
2636.28	0.0255752
2637.63	0.125132
2638.99	0.520694
2640.35	0.279634
2641.71	0.0243969
2643.06	-0.0677228
2644.42	-0.0857563
2645.77	0.235457
2647.13	0.231528
2648.49	-0.0234122
2649.84	-0.293334
2651.2	0.0982132
2652.55	0.136256
2653.91	0.409163
2655.26	0.213227
2656.62	-0.376811
2657.97	0.118029
2659.33	0.0425673
2660.68	-0.164062
2662.03	0.126251
2663.39	0.138207
2664.74	0.251594
2666.09	0.291216
2667.44	-0.0339723
2668.8	0.194622
2670.15	0.0739107
2671.5	0.0556264
2672.85	0.0815177
2674.2	0.151496
2675.55	-0.169974
2676.91	0.133196
2678.26	0.01613
2679.61	0.146368
2680.96	0.118018
2682.31	0.206725
2683.66	0.180506
2685	0.44523
2686.35	0.20268
2687.7	-0.0982723
2689.05	0.398057
2690.4	0.529989
2691.75	-0.152575
2693.1	0.353644
2694.44	0.394522
2695.79	0.130876
2697.14	0.375051
2698.49	-0.0169377
2699.83	-0.0742707
2701.18	-0.13011
2702.52	0.0325799
2703.87	0.254249
2705.22	0.201104
2706.56	-0.0551119
2707.91	-0.0651069
2709.25	0.142291
2710.6	0.233338
2711.94	0.280628
2713.29	0.226098
2714.63	-0.17738
2715.97	0.17493
2717.32	0.323689
2718.66	-0.0950704
2720.01	0.1259
2721.35	0.25923
2722.69	0.115618
2724.03	0.219008
2725.38	0.234684
2726.72	-0.04108
2728.06	0.221406
2729.4	0.105273
2730.74	0.309148
2732.08	-0.287223
2733.42	0.178542
2734.76	-0.0829091
2736.1	0.383078
2737.44	0.398271
2738.78	0.297091
2740.12	0.00664854
2741.46	0.0938902
2742.8	0.267752
2744.14	0.484497
2745.48	-0.0984721
2746.82	0.306093
2748.16	0.0714946
2749.49	0.170837
2750.83	0.313785
2752.17	0.181396
2753.51	0.0493073
2754.84	0.0913091
2756.18	0.278236
2757.52	-0.171894
2758.85	0.304891
2760.19	0.289732
2761.53	0.0434809
2762.86	-0.158894
2764.2	-0.201824
2765.53	0.0301228
2766.87	0.102489
2768.2	0.0872231
2769.54	0.0852871
2770.87	0.212131
2772.2	0.0343466
2773.54	0.231079
2774.87	0.0666003
2776.2	-0.169629
2777.54	-0.131711
2778.87	0.30925
2780.2	0.060277
2781.53	-0.374761
2782.87	-0.192074
2784.2	0.305828
2785.53	0.17245
2786.86	-0.204058
2788.19	-0.221823
2789.52	-0.00998783
2790.85	0.00221348
2792.18	-0.0993066
2793.51	0.314221
2794.84	0.0415854
2796.17	0.125979
2797.5	-0.43292
2798.83	0.00756979
2800.16	-0.10927
2801.49	-0.0835876
2802.82	0.426662
2804.15	-0.11838
2805.47	-0.235945
2806.8	-0.0692277
2808.13	0.338494
2809.46	0.134136
2810.78	0.171537
2812.11	-0.287241
2813.44	-0.248092
2814.76	0.0190773
2816.09	0.273167
2817.42	0.003757
2818.74	0.315974
2820.07	-0.0379753
2821.39	0.160438
2822.72	0.145653
2824.04	0.101987
2825.37	0.0580444
2826.69	0.014164
2828.02	0.12649
2829.34	0.409159
2830.66	0.0410242
2831.99	0.239315
2833.31	0.324289
2834.63	0.338189
2835.96	0.0686054
2837.28	0.0816298
2838.6	0.306457
2839.92	0.672406
2841.24	0.713088
2842.57	0.414891
2843.89	0.188025
2845.21	0.795608
2846.53	1.24825
2847.85	0.980456
2849.17	1.10839
2850.49	1.25019
2851.81	1.39152
2853.13	0.95293
2854.45	1.05106
2855.77	1.3468
2857.09	1.27515
2858.41	1.28831
2859.72	1.31557
2861.04	1.70977
2862.36	1.72237
2863.68	1.57936
2865	1.94414
2866.31	1.50466
2867.63	2.01051
2868.95	2.02304
2870.26	2.3038
2871.58	2.40137
2872.9	2.32951
2874.21	2.36969
2875.53	2.25393
2876.84	2.85526
2878.16	2.51247
2879.47	2.61982
2880.79	2.43218
2882.1	2.89175
2883.42	2.70592
2884.73	2.71766
2886.05	2.67379
2887.36	2.4756
2888.67	2.74012
2889.99	2.69515
2891.3	2.60736
2892.61	2.74332
2893.92	2.5148
2895.24	2.7629
2896.55	2.75961
2897.86	3.17708
2899.17	2.79786
2900.48	2.69924
2901.79	2.97874
2903.11	3.41225
2904.42	3.13249
2905.73	3.17471
2907.04	3.51118
2908.35	3.75054
2909.66	3.80888
2910.97	3.62986
2912.27	4.09462
2913.58	4.19479
2914.89	3.9576
2916.2	4.46072
2917.51	4.55626
2918.82	4.74871
2920.13	4.59126
2921.43	4.57438
2922.74	4.85228
2924.05	5.11748
2925.35	5.13218
2926.66	5.51092
2927.97	5.61013
2929.27	5.34545
2930.58	5.79318
2931.89	5.5554
2933.19	6.10016
2934.5	5.55461
2935.8	5.76395
2937.11	5.80572
2938.41	5.77779
2939.72	5.52657
2941.02	5.17806
2942.32	5.09589
2943.63	5.18261
2944.93	5.10295
2946.24	4.71672
2947.54	5.17023
2948.84	4.28012
2950.14	4.57838
2951.45	4.53893
2952.75	4.51161
2954.05	4.60891
2955.35	4.00593
2956.65	3.87986
2957.95	4.38562
2959.26	4.30619
2960.56	4.14536
2961.86	3.6779
2963.16	3.86982
2964.46	3.94912
2965.76	4.02711
2967.06	3.45706
2968.36	3.53202
2969.66	3.2688
2970.96	2.78031
2972.25	3.22038
2973.55	3.09808
2974.85	2.83491
2976.15	3.44394
2977.45	2.62969
2978.74	2.85574
2980.04	2.79853
2981.34	2.65568
2982.64	2.66713
2983.93	2.21495
2985.23	2.05924
2986.52	2.22817
2987.82	1.63962
2989.12	2.26044
2990.41	1.96806
2991.71	1.64706
2993	1.81698
2994.3	1.28313
2995.59	1.45085
2996.89	1.42121
2998.18	1.06864
2999.48	1.10934
3000.77	0.940147
3002.06	1.36028
3003.36	1.02384
3004.65	0.78573
3005.94	0.645537
3007.23	0.812844
3008.53	0.783352
3009.82	0.83697
3011.11	0.596408
3012.4	0.830489
3013.69	0.478297
3014.99	0.810039
3016.28	0.320062
3017.57	0.457826
3018.86	0.581957
3020.15	0.455672
3021.44	0.245717
3022.73	0.493592
3024.02	0.5459
3025.31	0.167655
3026.6	0.357774
3027.89	0.229717
3029.18	0.296415
3030.46	0.0880127
3031.75	0.212546
3033.04	0.379293
3034.33	0.242574
3035.62	0.42272
3036.9	0.0500064
3038.19	0.199714
3039.48	0.430017
3040.76	0.452199
3042.05	0.377397
3043.34	0.179417
3044.62	0.379666
3045.91	0.211784
3047.19	0.128136
3048.48	0.319715
3049.77	0.540322
3051.05	0.421115
3052.34	0.425467
3053.62	0.143273
3054.9	0.297097
3056.19	0.422627
3057.47	0.356213
3058.76	0.684227
3060.04	0.657599
3061.32	0.658567
3062.61	0.30681
3063.89	0.459651
3065.17	0.518669
3066.45	0.347839
3067.74	0.558577
3069.02	0.511335
3070.3	0.382208
3071.58	0.129853
3072.86	0.393192
3074.14	0.19306
3075.42	0.41346
3076.7	0.212365
3077.99	0.147579
3079.26	0.300895
3080.54	0.319831
3081.82	0.0553122
3083.1	0.0496154
3084.38	-0.064045
3085.66	-0.0555668
3086.94	-0.142489
3088.22	0.272162
3089.5	0.129692
3090.78	-0.0674281
3092.05	-0.0339642
3093.33	0.0267434
3094.61	0.399583
3095.89	-0.271475
3097.16	0.0473628
3098.44	-0.0405812
3099.72	0.183033
3100.99	6.4373e-005
3102.27	-0.0473261
3103.54	0.135704
3104.82	0.278496
3106.1	0.0835752
3107.37	0.0789647
3108.65	-0.127729
3109.92	-0.198195
3111.2	-0.0647531
3112.47	-0.133756
3113.74	0.0550289
3115.02	-0.122084
3116.29	-0.0692058
3117.56	0.227081
3118.84	0.142659
3120.11	0.206426
3121.38	0.147309
3122.66	0.0334897
3123.93	-0.0668387
3125.2	-0.00444317
3126.47	0.125964
3127.74	0.0132456
3129.01	0.103917
3130.29	0.221893
3131.56	0.299337
3132.83	0.457656
3134.1	0.250815
3135.37	-0.185782
3136.64	-0.00178194
3137.91	0.168045
3139.18	0.216037
3140.45	0.169598
3141.72	0.163638
3142.99	0.37291
3144.26	0.380905
3145.52	0.000422955
3146.79	0.452189
3148.06	0.64943
3149.33	0.271258
