200.523	0.715822
202.339	0.723112
204.154	0.73187
205.967	-0.0365524
207.781	0.36305
209.596	0.373253
211.409	0.16406
213.222	0.925017
215.034	0.471411
216.848	-0.127261
218.659	0.0501833
220.47	0.324928
222.281	-0.39136
224.091	0.175402
225.903	-0.200141
227.713	-0.309436
229.522	0.547039
231.331	0.292222
233.14	-0.107183
234.948	0.0488567
236.756	-0.300117
238.566	0.823273
240.373	0.40649
242.18	0.32933
243.986	0.253468
245.792	-0.377511
247.598	0.0521221
249.403	0.214099
251.208	0.252693
253.013	-0.0730782
254.818	0.540829
256.624	-0.220328
258.427	0.249139
260.231	-0.316027
262.034	-0.204692
263.836	0.12503
265.638	0.09447
267.44	0.281224
269.242	0.15452
271.043	0.412907
272.844	0.646288
274.645	0.0828447
276.445	-0.313074
278.245	-0.204234
280.044	-0.121211
281.843	0.489515
283.642	0.0636358
285.44	0.117846
287.238	-0.164633
289.036	0.128995
290.833	0.25517
292.63	0.119156
294.425	0.726341
296.221	0.641046
298.017	-0.112234
299.813	0.0673046
301.608	-0.254923
303.403	0.759424
305.198	-0.0657034
306.992	0.134866
308.786	0.335111
310.579	0.106902
312.371	-0.0246859
314.163	0.345416
315.956	1.0506
317.748	1.32909
319.54	0.799365
321.331	-0.0394325
323.122	0.385622
324.911	0.358233
326.701	0.474272
328.491	0.470838
330.281	0.395123
332.071	0.509633
333.857	-0.214748
335.646	-0.343011
337.434	0.699315
339.222	0.0648069
341.008	-0.0206299
342.795	-0.0349264
344.582	0.0463858
346.369	0.104257
348.153	0.47317
349.939	0.866307
351.724	0.972942
353.51	1.2222
355.292	1.5657
357.077	0.0955954
358.861	0.365369
360.643	0.157522
362.426	-0.0984039
364.21	-0.0216885
365.99	-0.183264
367.773	-0.0603857
369.555	0.180079
371.335	0.466668
373.116	0.0659285
374.897	0.303845
376.676	0.0928459
378.456	0.543041
380.236	-0.349483
382.014	0.525871
383.793	0.789613
385.57	-0.097558
387.349	0.0746298
389.127	0.0597963
390.903	0.679991
392.681	-0.15519
394.456	-0.285225
396.233	-0.0861282
398.007	0.300966
399.784	0.641003
401.56	0.886725
403.333	0.380242
405.108	0.48379
406.881	0.563155
408.656	0.0550251
410.428	0.0162764
412.202	0.212286
413.973	0.197443
415.746	0.605618
417.517	0.287154
419.29	-0.265427
421.06	0.332117
422.831	-0.00934219
424.601	0.0710735
426.37	0.526316
428.141	0.276535
429.909	0.401934
431.679	-0.0594482
433.447	0.394816
435.216	0.59123
436.983	0.200879
438.75	0.326221
440.519	0.379833
442.285	0.501938
444.052	0.551611
445.818	0.201288
447.583	0.599405
449.349	0.575521
451.114	-0.0322714
452.878	0.178267
454.643	-0.287738
456.407	0.0626812
458.169	-0.0766153
459.934	0.55227
461.696	-0.260824
463.458	-0.397612
465.222	-0.114057
466.983	0.450706
468.744	0.274306
470.507	0.285465
472.267	0.483299
474.027	0.471108
475.787	0.503865
477.548	0.744319
479.307	0.447306
481.065	0.661869
482.823	0.364168
484.583	0.836161
486.341	0.518011
488.098	0.434643
489.855	0.329685
491.612	0.48228
493.37	1.45353
495.126	0.321873
496.881	-0.531096
498.636	0.652599
500.391	1.15789
502.148	0.419427
503.902	0.47759
505.656	0.746314
507.409	0.82592
509.162	0.692416
510.915	0.55734
512.668	0.397239
514.42	0.541669
516.174	0.026125
517.925	-0.0433722
519.676	1.17919
521.427	0.919702
523.178	0.542602
524.928	0.775932
526.678	0.633657
528.427	0.77289
530.176	0.677526
531.925	0.511603
533.673	0.438753
535.422	1.23032
537.169	0.804079
538.917	0.704145
540.664	0.533375
542.411	0.618468
544.157	0.609949
545.903	0.740826
547.649	0.453814
549.395	0.237218
551.14	0.044446
552.884	0.0835323
554.629	1.48589
556.373	0.48512
558.117	0.570457
559.86	-0.357602
561.603	0.557902
563.346	0.5984
565.089	0.685332
566.831	0.451151
568.573	0.447527
570.314	0.421901
572.053	0.213985
573.794	0.420473
575.534	0.422057
577.274	0.264482
579.014	0.406368
580.754	0.457161
582.493	0.0714474
584.23	0.466527
585.968	0.585012
587.706	0.771417
589.444	0.128494
591.181	0.220901
592.919	0.588928
594.653	0.588674
596.39	0.473403
598.126	0.611154
599.862	0.518485
601.595	0.379045
603.33	0.215508
605.065	0.188713
606.8	0.574375
608.532	-0.120402
610.266	-0.0112505
611.999	0.946851
613.732	0.643749
615.463	0.112309
617.196	0.429051
618.928	0.355739
620.66	0.670634
622.389	0.389271
624.12	0.861848
625.851	0.374355
627.58	0.16239
629.31	0.203331
631.04	0.611354
632.767	0.747338
634.497	0.724519
636.223	0.952445
637.952	0.0373926
639.68	0.124401
641.406	1.16669
643.134	0.67834
644.861	0.781661
646.586	0.0207319
648.312	0.876471
650.037	0.711711
651.762	0.77771
653.486	0.392648
655.211	0.305754
656.936	0.607751
658.659	1.13911
660.383	0.598667
662.105	1.12914
663.829	0.355576
665.55	0.402114
667.273	1.56752
668.994	0.399757
670.716	-0.0357494
672.436	0.765898
674.158	0.860653
675.877	1.11792
677.598	1.39975
679.317	0.970208
681.035	0.722802
682.755	1.23258
684.473	0.981331
686.192	1.30368
687.909	1.21011
689.628	1.1385
691.344	0.927962
693.06	1.31572
694.778	0.666237
696.493	1.55887
698.211	0.861479
699.925	1.08385
701.64	1.3279
703.356	0.766345
705.07	0.641253
706.783	1.13548
708.498	0.8718
710.211	0.99769
711.924	0.962761
713.638	0.767466
715.35	1.12077
717.061	0.925425
718.774	0.684855
720.485	1.60717
722.196	0.729108
723.906	0.921888
725.618	1.04599
727.328	1.89639
729.037	1.06567
730.746	1.5509
732.456	1.1289
734.165	0.888563
735.873	0.965153
737.58	1.29027
739.289	1.29955
740.997	1.87325
742.703	1.3435
744.41	2.05385
746.116	1.77474
747.823	1.60963
749.529	1.85073
751.234	2.04802
752.938	1.30186
754.643	1.81662
756.347	1.6354
758.051	1.68063
759.756	1.36678
761.459	1.84264
763.162	2.31967
764.865	1.55518
766.567	1.53419
768.269	1.76012
769.97	2.02937
771.671	2.04799
773.372	1.59037
775.073	1.8107
776.773	2.28023
778.473	1.93701
780.174	2.6581
781.874	2.4757
783.573	2.36119
785.271	2.5171
786.97	2.15001
788.668	2.5494
790.365	2.1083
792.063	1.75559
793.76	2.1471
795.456	2.04135
797.153	2.04935
798.847	2.05891
800.543	2.07015
802.238	2.37516
803.933	2.16331
805.628	1.97391
807.322	1.67154
809.017	2.0196
810.71	2.29876
812.404	1.94875
814.097	1.53153
815.79	2.05495
817.483	2.28667
819.173	2.11579
820.865	2.23561
822.556	2.24403
824.248	2.09714
825.939	2.21917
827.629	1.80858
829.318	1.44531
831.008	1.30749
832.697	0.971567
834.387	1.72942
836.076	1.86448
837.765	1.46384
839.451	1.44129
841.139	1.46196
842.827	1.48143
844.514	1.88037
846.2	2.10131
847.886	1.69798
849.573	1.81112
851.259	2.32981
852.943	1.46154
854.629	2.20793
856.314	1.81009
857.997	1.63521
859.682	1.52598
861.366	1.57253
863.05	1.5951
864.732	2.06723
866.415	1.97518
868.098	1.49912
869.779	1.18029
871.461	1.628
873.141	1.4214
874.823	1.6208
876.505	1.68484
878.184	0.688113
879.865	2.06117
881.545	1.65073
883.223	1.46529
884.903	1.3917
886.581	2.10674
888.26	1.17285
889.937	1.70407
891.616	1.44449
893.294	1.40922
894.97	0.900408
896.648	1.40308
898.323	0.825961
900	1.07915
901.675	1.55506
903.351	1.38037
905.026	1.47411
906.701	1.16606
908.375	1.79565
910.05	1.37799
911.723	0.650629
913.398	1.63651
915.07	0.977826
916.742	1.3186
918.415	0.927313
920.087	1.09039
921.76	1.71819
923.43	1.06404
925.103	1.31795
926.773	1.22001
928.443	1.69755
930.114	1.75671
931.783	0.911914
933.454	1.01617
935.123	1.36319
936.791	1.40175
938.461	1.00003
940.128	0.974336
941.796	1.30269
943.464	1.16845
945.131	0.967767
946.797	0.854257
948.465	1.33506
950.131	1.24017
951.797	0.945662
953.462	0.607309
955.128	1.61559
956.793	1.08278
958.457	1.25863
960.121	0.775033
961.786	0.998994
963.45	0.89154
965.113	0.959332
966.775	1.33448
968.44	1.50798
970.102	0.8388
971.763	1.18653
973.425	0.583645
975.086	0.380219
976.748	1.17358
978.409	0.729788
980.069	1.02763
981.729	1.32526
983.388	0.592282
985.048	0.588027
986.708	0.581924
988.367	0.861849
990.025	0.742373
991.683	0.600345
993.341	0.900062
994.998	1.22159
996.655	0.836885
998.312	1.11404
999.969	1.39064
1001.62	1.82066
1003.28	1.47945
1004.94	1.05044
1006.59	0.226377
1008.25	0.874843
1009.9	1.08382
1011.56	0.569267
1013.21	0.713234
1014.86	0.00316811
1016.52	0.345007
1018.17	0.665056
1019.82	0.526258
1021.48	0.21359
1023.13	0.820084
1024.78	0.684166
1026.43	0.701761
1028.08	0.522707
1029.73	0.561579
1031.38	0.795883
1033.03	0.657436
1034.68	0.386731
1036.33	0.224176
1037.98	0.976091
1039.63	0.747251
1041.28	0.562881
1042.93	0.488633
1044.57	0.611575
1046.22	0.823053
1047.87	0.362949
1049.52	0.0780811
1051.16	0.815116
1052.81	0.705859
1054.45	0.770729
1056.1	0.0531645
1057.75	0.0741796
1059.39	0.6166
1061.04	0.114836
1062.68	0.286429
1064.32	0.544167
1065.97	0.648718
1067.61	0.382762
1069.25	0.355096
1070.9	0.348592
1072.54	0.602463
1074.18	0.704692
1075.82	0.504147
1077.47	0.695257
1079.11	0.475444
1080.75	0.690017
1082.39	0.123927
1084.03	0.446075
1085.67	0.354795
1087.31	0.608426
1088.95	0.53509
1090.59	0.979517
1092.22	0.406153
1093.86	0.243705
1095.5	0.319073
1097.14	0.00703716
1098.78	0.816746
1100.41	0.59375
1102.05	0.953712
1103.69	0.605209
1105.32	-6.77109e-005
1106.96	0.0189877
1108.59	0.188298
1110.23	0.550072
1111.86	0.00752544
1113.5	-0.192251
1115.13	0.573171
1116.77	0.393145
1118.4	0.0848732
1120.03	0.334618
1121.67	0.713447
1123.3	0.47224
1124.93	0.42468
1126.56	0.463493
1128.19	1.37976
1129.83	0.628682
1131.46	1.20382
1133.09	0.133087
1134.72	-0.103951
1136.35	0.705747
1137.98	0.53126
1139.61	0.398484
1141.24	0.051424
1142.86	-0.0823469
1144.49	0.0614004
1146.12	-0.369946
1147.75	-0.267375
1149.38	0.0915337
1151	0.386786
1152.63	0.0643454
1154.26	0.465588
1155.88	0.759819
1157.51	0.415488
1159.14	-0.374926
1160.76	0.579493
1162.39	0.301439
1164.01	0.513359
1165.63	0.428065
1167.26	0.151161
1168.88	0.362293
1170.51	0.486775
1172.13	0.163247
1173.75	-0.0341387
1175.38	0.36169
1177	-0.388234
1178.62	0.155278
1180.24	0.592778
1181.86	0.290189
1183.48	0.30568
1185.1	0.10987
1186.72	0.0612488
1188.34	0.0956182
1189.96	0.0649452
1191.58	0.47472
1193.2	0.146259
1194.82	0.111888
1196.44	-0.069087
1198.06	-0.123113
1199.68	0.514645
1201.29	0.714544
1202.91	0.144143
1204.53	0.891506
1206.14	1.07707
1207.76	0.804874
1209.38	0.512127
1210.99	0.594102
1212.61	0.403398
1214.22	0.398355
1215.84	0.183066
1217.45	-0.0542698
1219.07	0.684644
1220.68	0.529346
1222.29	0.748296
1223.91	0.988758
1225.52	0.836926
1227.13	0.893669
1228.74	1.15853
1230.36	1.05225
1231.97	1.71203
1233.58	1.40142
1235.19	1.23678
1236.8	1.23868
1238.41	0.786757
1240.02	1.49328
1241.63	1.26956
1243.24	0.900574
1244.85	0.923862
1246.46	1.02897
1248.07	1.11242
1249.67	1.25722
1251.28	0.801768
1252.89	1.13268
1254.5	0.926476
1256.1	0.948841
1257.71	0.579327
1259.32	1.1833
1260.92	1.20889
1262.53	1.04859
1264.13	0.722456
1265.74	1.32825
1267.34	0.752163
1268.95	0.734721
1270.55	0.695584
1272.15	0.634744
1273.76	1.46444
1275.36	1.33943
1276.97	1.29645
1278.57	1.06629
1280.17	1.00137
1281.77	0.356742
1283.37	0.954029
1284.97	0.88962
1286.58	0.929471
1288.18	1.38365
1289.78	0.639983
1291.38	0.930116
1292.98	1.63332
1294.58	1.3027
1296.18	1.9829
1297.78	0.968255
1299.37	1.3147
1300.97	1.32937
1302.57	1.40463
1304.17	1.56112
1305.77	1.51102
1307.36	1.85072
1308.96	1.45089
1310.55	1.17489
1312.15	1.53444
1313.75	1.50547
1315.34	0.987156
1316.94	1.12393
1318.53	1.73027
1320.13	1.45895
1321.72	1.67601
1323.32	1.54519
1324.91	1.12839
1326.5	1.78711
1328.1	1.26783
1329.69	2.18792
1331.28	1.69188
1332.87	0.835423
1334.47	1.81977
1336.06	1.89644
1337.65	1.36853
1339.24	1.82818
1340.83	1.70142
1342.42	1.27089
1344.01	1.36193
1345.6	1.41156
1347.19	1.42117
1348.78	1.93318
1350.37	1.86641
1351.96	1.02231
1353.54	0.900744
1355.13	0.960358
1356.72	1.14017
1358.31	0.800085
1359.89	1.61751
1361.48	0.99614
1363.07	1.57147
1364.65	0.989565
1366.24	1.18561
1367.82	1.20303
1369.41	0.903126
1370.99	1.18188
1372.58	1.3226
1374.16	0.927149
1375.75	1.24867
1377.33	0.336559
1378.91	0.219923
1380.5	1.39569
1382.08	0.99829
1383.66	1.33564
1385.25	0.836946
1386.83	0.934307
1388.41	0.813313
1389.99	0.970949
1391.57	1.12933
1393.15	0.65359
1394.73	0.654417
1396.31	0.337811
1397.89	0.853279
1399.47	0.951342
1401.05	0.73154
1402.63	0.511438
1404.21	0.786144
1405.78	0.744699
1407.36	0.723861
1408.94	1.15827
1410.52	0.625048
1412.1	0.644985
1413.67	1.23679
1415.25	0.860453
1416.82	0.976693
1418.4	1.26984
1419.98	1.22814
1421.55	1.12848
1423.13	0.636731
1424.7	1.30795
1426.28	1.05525
1427.85	0.763679
1429.42	1.39693
1431	1.4388
1432.57	1.53856
1434.14	2.05046
1435.71	1.6963
1437.29	1.24427
1438.86	1.28461
1440.43	1.89586
1442	1.68257
1443.57	1.94167
1445.14	2.49601
1446.71	1.75333
1448.28	1.85597
1449.85	2.39144
1451.42	1.86578
1452.99	1.3208
1454.56	1.64149
1456.13	2.23775
1457.7	1.79054
1459.26	1.61748
1460.83	2.2889
1462.4	1.71869
1463.97	1.91418
1465.54	1.73495
1467.1	1.31987
1468.67	1.78908
1470.23	0.983189
1471.8	1.19911
1473.36	0.709869
1474.93	0.947096
1476.49	0.98858
1478.06	1.40264
1479.62	1.01286
1481.19	0.760286
1482.75	1.01722
1484.31	0.882073
1485.88	0.727042
1487.44	0.669274
1489	0.766917
1490.56	0.393146
1492.13	0.467549
1493.69	-0.0460835
1495.25	0.278687
1496.81	0.913451
1498.37	0.495646
1499.93	0.118295
1501.49	1.00458
1503.05	0.571441
1504.61	0.663069
1506.17	0.793472
1507.73	0.478258
1509.28	0.819506
1510.84	0.541452
1512.4	0.494526
1513.96	0.447375
1515.52	0.24677
1517.07	0.699913
1518.63	0.539133
1520.19	0.417583
1521.74	0.239079
1523.3	0.270895
1524.85	0.5119
1526.41	0.694186
1527.96	0.779908
1529.52	0.142399
1531.07	0.361045
1532.63	0.0676613
1534.18	0.362862
1535.73	0.885249
1537.29	0.0659761
1538.84	-0.0715122
1540.39	1.09264
1541.94	0.276705
1543.5	0.666675
1545.05	0.322481
1546.6	1.12445
1548.15	0.723844
1549.7	1.41112
1551.25	0.767808
1552.8	1.2486
1554.35	1.05665
1555.9	1.01578
1557.45	1.16334
1559	0.790241
1560.55	0.978801
1562.1	1.33675
1563.65	0.800313
1565.19	1.19723
1566.74	0.67993
1568.29	0.666196
1569.83	0.745439
1571.38	0.824341
1572.93	1.27633
1574.47	1.6162
1576.02	1.76943
1577.56	0.802792
1579.11	1.03131
1580.66	1.85798
1582.2	1.50915
1583.74	1.08624
1585.29	1.01886
1586.83	1.49407
1588.38	1.91371
1589.92	1.22945
1591.46	1.03094
1593.01	1.35615
1594.55	1.55017
1596.09	1.10733
1597.63	1.33934
1599.17	1.49718
1600.71	1.01803
1602.25	1.68374
1603.79	1.41117
1605.34	1.25039
1606.88	1.37005
1608.41	1.31871
1609.95	1.65982
1611.49	1.11543
1613.03	1.60249
1614.57	1.3558
1616.11	1.27783
1617.65	1.20043
1619.18	1.01184
1620.72	1.19938
1622.26	0.994921
1623.79	0.959776
1625.33	1.26158
1626.87	0.982381
1628.4	1.16982
1629.94	1.61759
1631.48	1.44713
1633.01	0.996341
1634.55	1.12505
1636.08	1.62754
1637.61	0.769073
1639.15	1.08633
1640.68	1.57111
1642.21	1.81272
1643.75	1.66199
1645.28	1.43581
1646.81	1.35781
1648.34	1.27964
1649.88	1.49906
1651.41	2.22019
1652.94	2.21847
1654.47	1.16113
1656	1.40251
1657.53	1.53249
1659.06	1.60603
1660.59	2.15952
1662.12	1.8784
1663.65	2.02168
1665.18	1.22224
1666.71	1.75319
1668.24	1.65742
1669.76	1.60012
1671.29	1.28639
1672.82	1.08444
1674.35	1.26973
1675.87	1.19694
1677.4	1.25225
1678.93	1.38005
1680.45	1.41478
1681.98	2.03669
1683.5	0.931479
1685.03	0.965464
1686.55	0.724669
1688.08	1.01608
1689.6	1.14268
1691.13	0.903204
1692.65	1.13983
1694.17	0.772567
1695.7	1.1002
1697.22	-0.0162001
1698.74	0.877038
1700.27	0.838073
1701.79	0.397444
1703.31	0.212043
1704.83	0.463455
1706.35	0.604877
1707.87	0.309516
1709.39	1.01353
1710.91	0.790926
1712.43	0.586998
1713.95	0.401669
1715.47	0.506336
1716.99	0.646936
1718.51	0.769106
1720.03	0.421526
1721.55	0.128808
1723.07	-0.144903
1724.58	-0.111084
1726.1	0.374007
1727.62	0.229878
1729.13	0.140698
1730.65	-0.232249
1732.17	0.0417395
1733.68	0.269596
1735.2	0.470844
1736.72	0.578897
1738.23	0.384079
1739.74	0.253127
1741.26	0.18532
1742.77	-0.0147982
1744.29	0.200415
1745.8	0.209284
1747.32	0.337471
1748.83	-0.103148
1750.34	0.0116959
1751.85	0.502211
1753.37	0.155949
1754.88	0.252901
1756.39	0.310358
1757.9	0.162085
1759.41	0.167578
1760.92	-0.00488186
1762.44	-0.170987
1763.95	0.46528
1765.46	-0.0969105
1766.96	-0.398668
1768.47	0.00797176
1769.98	0.344546
1771.49	-0.0347157
1773	0.0691652
1774.51	0.376685
1776.02	0.00555038
1777.53	0.414584
1779.03	0.073473
1780.54	0.0746698
1782.05	-0.0474195
1783.55	0.0816936
1785.06	0.155118
1786.57	0.0180492
1788.07	-0.10056
1789.58	0.0941858
1791.08	0.00282383
1792.59	-0.219107
1794.09	-0.0494089
1795.6	0.0990992
1797.1	-0.00413799
1798.61	0.228329
1800.11	0.103848
1801.61	0.188788
1803.12	-0.0533485
1804.62	0.131935
1806.12	0.133496
1807.62	0.242741
1809.12	0.094079
1810.63	0.281308
1812.13	0.0570831
1813.63	-0.372726
1815.13	0.118137
1816.63	0.0726929
1818.13	0.0778265
1819.63	0.210668
1821.13	-0.191107
1822.63	-0.133516
1824.13	0.558952
1825.63	0.0357885
1827.13	0.110584
1828.62	0.255086
1830.12	0.0900927
1831.62	-0.118653
1833.12	0.13633
1834.61	0.0575809
1836.11	0.154522
1837.61	0.0916901
1839.1	0.185193
1840.6	-0.00553131
1842.09	0.0589056
1843.59	0.246264
1845.09	-0.0496826
1846.58	-0.0671053
1848.08	-0.153941
1849.57	-0.0632563
1851.06	0.134437
1852.56	0.0778027
1854.05	-0.0219688
1855.54	-0.23098
1857.04	0.25357
1858.53	-0.207062
1860.02	-0.0212803
1861.51	-0.0477667
1863.01	-0.311027
1864.5	-0.0415258
1865.99	0.289873
1867.48	0.0863876
1868.97	0.296989
1870.46	0.496061
1871.95	-0.0911741
1873.44	0.127192
1874.93	0.149626
1876.42	0.031065
1877.91	0.258465
1879.4	-0.00237751
1880.89	0.0426817
1882.37	-0.0047617
1882.46	-0.010808
1883.95	0.145798
1885.45	-0.116652
1886.94	0.108032
1888.43	0.262358
1889.93	-0.105304
1891.42	-0.00219536
1892.91	0.310914
1894.41	0.225771
1895.9	0.17686
1897.39	0.19831
1898.88	0.254501
1900.37	0.0314474
1901.86	0.485355
1903.36	-0.07127
1904.85	-0.107324
1906.34	-0.091958
1907.83	0.166451
1909.32	0.199497
1910.81	-0.0615969
1912.29	-0.200285
1913.78	0.303324
1915.27	-0.198905
1916.76	0.217642
1918.25	0.460164
1919.74	0.147648
1921.23	0.302895
1922.71	0.458405
1924.2	-0.199036
1925.69	0.131444
1927.17	0.237847
1928.66	0.241007
1930.15	0.33075
1931.63	-0.0650959
1933.12	0.265056
1934.6	0.160676
1936.09	-0.239298
1937.57	0.0344381
1939.06	0.082736
1940.54	0.183012
1942.02	0.145865
1943.51	0.437479
1944.99	-0.167008
1946.47	0.263605
1947.96	0.331852
1949.44	-0.0485249
1950.92	0.138747
1952.4	-0.0536127
1953.88	-0.469802
1955.37	-0.112239
1956.85	0.124964
1958.33	0.396819
1959.81	0.085824
1961.29	0.101422
1962.77	0.185766
1964.25	-0.0899115
1965.73	0.182221
1967.21	-0.0257921
1968.69	0.0737295
1970.16	-0.0325394
1971.64	-0.0876656
1973.12	0.198594
1974.6	0.126342
1976.08	0.00321484
1977.55	-0.0684872
1979.03	-0.0378752
1980.51	-0.109387
1981.98	0.346004
1983.46	0.426785
1984.94	-0.188803
1986.41	0.468373
1987.89	0.0398645
1989.36	0.475944
1990.84	0.268941
1992.31	0.0799665
1993.79	-0.00646877
1995.26	0.0938025
1996.73	-0.0421
1998.21	0.43006
1999.68	-0.128322
2001.15	0.27509
2002.63	0.306591
2004.1	0.337912
2005.57	0.0493374
2007.04	0.199598
2008.51	-0.423974
2009.99	-0.103717
2011.46	0.216917
2012.93	-0.0347319
2014.4	-0.152034
2015.87	-0.0848866
2017.34	0.0318747
2018.81	0.0469303
2020.28	0.145476
2021.75	-0.0585165
2023.21	0.426171
2024.68	0.239997
2026.15	0.0214682
2027.62	-0.262793
2029.09	-0.0257893
2030.56	0.195684
2032.02	-0.20274
2033.49	0.238375
2034.96	0.478287
2036.42	0.113268
2037.89	0.0164051
2039.36	0.120816
2040.82	0.393297
2042.29	0.54854
2043.75	0.334523
2045.22	-0.0470991
2046.68	0.16084
2048.14	0.167156
2049.61	0.12265
2051.07	0.178376
2052.54	-0.239446
2054	0.268645
2055.46	0.353509
2056.93	0.268467
2058.39	0.401786
2059.85	0.26531
2061.31	0.398692
2062.77	0.0445719
2064.23	0.213229
2065.7	0.231297
2067.16	0.233308
2068.62	0.0507259
2070.08	0.541718
2071.54	0.00594425
2073	0.496998
2074.46	0.651127
2075.92	-0.0707169
2077.38	0.0995989
2078.83	0.320077
2080.29	0.034956
2081.75	0.136642
2083.21	0.002038
2084.67	0.3212
2086.12	0.0170698
2087.58	-0.102415
2089.04	0.483697
2090.49	-0.0900059
2091.95	0.545606
2093.41	0.307916
2094.86	0.0199451
2096.32	0.335248
2097.77	0.415056
2099.23	0.192904
2100.68	0.0376759
2102.14	0.384164
2103.59	0.346805
2105.05	0.410787
2106.5	0.0589066
2107.95	0.525472
2109.41	0.208428
2110.86	0.124486
2112.31	0.222753
2113.76	0.352707
2115.21	0.0650024
2116.67	-0.223043
2118.12	0.237119
2119.57	-0.132237
2121.02	0.164079
2122.47	0.179917
2123.92	0.0643911
2125.37	0.0821419
2126.82	0.56393
2128.27	0.0998278
2129.72	0.115341
2131.17	0.195952
2132.62	-0.00565147
2134.07	-0.173998
2135.51	-0.341537
2136.96	-0.292892
2138.41	0.0546961
2139.86	0.139426
2141.31	-0.138072
2142.75	0.279791
2144.2	-0.128593
2145.65	0.141366
2147.09	-0.18474
2148.54	0.0349627
2149.98	0.038703
2151.43	0.15759
2152.87	0.060245
2154.32	0.19416
2155.76	0.145403
2157.21	0.129824
2158.65	0.297027
2160.1	0.0843296
2161.54	0.0221376
2162.98	-0.104902
2164.43	0.11757
2165.87	0.175063
2167.31	0.199371
2168.75	0.239487
2170.2	-0.037848
2171.64	0.730937
2173.08	0.267105
2174.52	0.317754
2175.96	0.700456
2177.4	-0.0308695
2178.84	0.402401
2180.28	0.287821
2181.72	0.0243378
2183.16	0.110511
2184.6	-0.0359044
2186.04	-0.132404
2187.48	0.137134
2188.92	0.0240383
2190.36	0.0773396
2191.79	0.113792
2193.23	0.416057
2194.67	0.134485
2196.11	-0.165164
2197.54	0.0994639
2198.98	0.329091
2200.42	0.0257812
2201.85	0.038208
2203.29	0.382954
2204.72	0.247331
2206.16	0.129318
2207.59	0.111284
2209.03	0.242174
2210.46	0.388845
2211.9	0.154023
2213.33	0.150261
2214.77	0.129848
2216.2	0.0934305
2217.63	0.420957
2219.07	-0.190738
2220.5	0.023037
2221.93	0.385152
2223.36	-0.340926
2224.8	-0.342925
2226.23	-0.0336499
2227.66	0.240845
2229.09	0.300161
2230.52	0.0797358
2231.95	0.46592
2233.39	0.245806
2234.81	0.370201
2236.25	0.184959
2237.67	0.197289
2239.1	-0.000881195
2240.53	0.0964274
2241.96	-0.0820098
2243.39	0.278876
2244.82	-0.0286164
2246.25	0.152691
2247.68	-0.303397
2249.1	-0.353424
2250.53	-0.0630965
2251.96	0.143889
2253.38	0.447304
2254.81	0.295438
2256.24	-0.260817
2257.66	0.305191
2259.09	-0.100104
2260.51	0.0974393
2261.94	0.362141
2263.36	0.0114021
2264.79	0.359356
2266.21	0.0732794
2267.64	0.111579
2269.06	0.132836
2270.49	-0.155903
2271.91	0.320049
2273.33	0.0794487
2274.76	0.148309
2276.18	0.0707326
2277.6	0.319227
2279.02	0.176659
2280.44	0.311176
2281.87	0.070509
2283.29	0.286442
2284.71	0.0292711
2286.13	0.000666142
2287.55	0.380545
2288.97	0.0913901
2290.39	0.227215
2291.81	0.0855012
2293.23	-0.00716639
2294.65	-0.263542
2296.07	-0.0946374
2297.49	-0.0730171
2298.91	0.194389
2300.33	0.363846
2301.74	0.189363
2303.16	0.572759
2304.58	0.0539055
2306	-0.153513
2307.41	0.262946
2308.83	0.0875397
2310.25	0.519898
2311.66	0.0310292
2313.08	0.01897
2314.5	-0.190285
2315.91	-0.03684
2317.33	0.0350423
2318.74	0.305215
2320.16	0.130189
2321.57	0.39957
2322.98	0.221842
2324.4	0.223566
2325.81	0.619239
2327.23	0.122529
2328.64	0.367269
2330.05	-0.261135
2331.46	0.18197
2332.88	-0.0161824
2334.29	0.362432
2335.7	0.247599
2337.11	0.0831075
2338.52	0.0658503
2339.94	-0.0181222
2341.35	-0.168526
2342.76	0.28802
2344.17	-0.207302
2345.58	0.0029912
2346.99	-0.0324249
2348.4	0.308736
2349.81	0.174731
2351.22	0.252743
2352.62	0.133761
2354.03	0.61789
2355.44	0.28537
2356.85	0.0509238
2358.26	-0.0366678
2359.67	0.200976
2361.07	-0.0162601
2362.48	0.0587964
2363.89	0.117409
2365.29	-0.196284
2366.7	0.315094
2368.11	-0.336556
2369.51	0.0301518
2370.92	0.203964
2372.32	0.314294
2373.73	-0.00935364
2375.13	0.0539589
2376.54	0.551331
2377.94	0.307534
2379.35	0.207288
2380.75	-0.183232
2382.15	0.115355
2383.56	0.428442
2384.96	-0.027319
2386.36	0.0296292
2387.76	0.0871987
2389.17	0.241357
2390.57	0.0936599
2391.97	0.0586638
2393.37	-0.214074
2394.77	0.293491
2396.17	0.181233
2397.58	0.0219359
2398.98	-0.089097
2400.38	0.229272
2401.78	0.0554237
2403.18	0.0881314
2404.58	-0.339951
2405.97	0.215652
2407.37	-0.0550699
2408.77	0.514322
2410.17	0.0366101
2411.57	-0.630568
2412.97	0.398032
2414.37	0.0654721
2415.76	0.0667634
2417.16	0.164218
2418.56	0.21502
2419.95	-0.177254
2421.35	0.0480013
2422.75	0.114604
2424.14	0.0700655
2425.54	0.564321
2426.93	0.15578
2428.33	-0.0302463
2429.72	0.402942
2431.12	-0.194194
2432.51	0.494088
2433.91	-0.0403223
2435.3	0.377111
2436.7	0.237293
2438.09	-0.0468979
2439.48	0.271471
2440.88	0.207718
2442.27	-0.0628643
2443.66	0.253621
2445.05	-0.239256
2446.44	0.124304
2447.84	-0.0672441
2449.23	-0.163598
2450.62	0.183653
2452.01	0.0879064
2453.4	0.214419
2454.79	-0.10134
2456.18	0.311262
2457.57	0.186294
2458.96	0.456639
2460.35	0.157094
2461.74	0.0466809
2463.13	0.125299
2464.52	-0.00205994
2465.91	-0.0664225
2467.29	0.200677
2468.68	0.104581
2470.07	0.071485
2471.46	0.274474
2472.85	0.240328
2474.23	-0.203768
2475.62	0.296052
2477.01	0.354636
2478.39	-0.199435
2479.78	-0.0620151
2481.16	-0.0657907
2482.55	-0.147948
2483.93	0.176669
2485.32	0.155859
2486.7	0.118471
2488.09	0.0801883
2489.47	-0.161287
2490.86	-0.122121
2492.24	0.290446
2493.62	0.0352745
2495.01	0.231678
2496.39	-0.346165
2497.77	-0.0859737
2499.15	0.220545
2500.54	-0.107815
2501.92	0.0891509
2503.3	0.2386
2504.68	-0.214648
2506.06	0.0259113
2507.45	-0.0421243
2508.83	0.228317
2510.21	-0.146496
2511.59	-0.351238
2512.97	-0.0644231
2514.35	0.0694814
2515.73	0.280478
2517.11	0.00239182
2518.48	-0.198449
2519.86	0.288737
2521.24	-0.110646
2522.62	0.283594
2524	-0.0250635
2525.38	0.00140619
2526.75	0.0428076
2528.13	-0.478537
2529.51	0.00534153
2530.89	-0.163531
2532.26	0.0186291
2533.64	-0.0715542
2535.02	-0.0243473
2536.39	0.0380425
2537.77	0.00872707
2539.14	0.0849137
2540.52	0.0844116
2541.89	0.189809
2543.27	-0.159828
2544.64	-0.387221
2546.01	0.0841761
2547.39	0.0864034
2548.76	0.0135312
2550.14	0.00144434
2551.51	0.0800176
2552.88	0.552398
2554.25	0.249854
2555.63	0.538281
2557	0.507514
2558.37	0.2795
2559.74	0.021513
2561.11	0.279419
2562.49	0.022562
2563.86	0.114801
2565.23	0.389275
2566.6	-0.00280523
2567.97	-0.0159559
2569.34	0.0921502
2570.71	0.412456
2572.08	0.232633
2573.45	0.477298
2574.82	0.343094
2576.18	0.405995
2577.55	0.104952
2578.92	-0.135671
2580.29	0.275413
2581.66	0.140263
2583.02	0.2777
2584.39	0.126852
2585.76	0.112407
2587.13	0.173844
2588.49	0.26575
2589.86	-0.430289
2591.22	-0.0201144
2592.59	0.238074
2593.96	0.0107155
2595.32	0.130898
2596.69	-0.00725698
2598.05	0.247357
2599.42	0.168692
2600.78	0.0599751
2602.14	-0.199221
2603.51	0.0103645
2604.87	0.0542884
2606.23	-0.00722218
2607.6	0.232634
2608.96	-0.251894
2610.32	0.0312867
2611.69	0.192511
2613.05	0.17196
2614.41	0.0906587
2615.77	-0.110783
2617.13	0.512872
2618.49	-0.451699
2619.86	0.157333
2621.22	0.0632601
2622.58	0.0445104
2623.94	0.220121
2625.3	0.276085
2626.66	-0.33931
2628.02	-0.0153117
2629.37	0.248375
2630.73	-0.0241637
2632.09	0.0752854
2633.45	0.5459
2634.81	0.199389
2636.17	0.0906959
2637.53	0.0118012
2638.88	-0.00769901
2640.24	-0.0566287
2641.6	-0.10527
2642.96	-0.153596
2644.31	0.123089
2645.67	-0.235042
2647.02	0.070406
2648.38	0.404239
2649.74	-0.0137939
2651.09	-0.225812
2652.45	-0.0852103
2653.8	-0.00341654
2655.16	0.0202127
2656.51	0.176567
2657.86	0.27518
2659.22	0.125811
2660.57	0.108577
2661.93	0.120486
2663.28	0.131871
2664.63	0.317686
2665.98	0.21083
2667.34	0.424319
2668.69	0.0985661
2670.04	-0.211887
2671.39	0.350959
2672.75	-0.0308723
2674.09	0.299895
2675.45	-0.0513759
2676.8	0.410659
2678.15	0.22027
2679.5	0.52373
2680.85	0.248112
2682.2	-0.243883
2683.55	0.164079
2684.9	0.471556
2686.25	0.141257
2687.6	0.0428829
2688.94	-0.0565486
2690.29	-0.230021
2691.64	0.364253
2692.99	0.231335
2694.34	0.126637
2695.68	0.137796
2697.03	-0.111287
2698.38	-0.431501
2699.73	0.364707
2701.07	0.337083
2702.42	0.00664377
2703.76	-0.105726
2705.11	0.37666
2706.45	0.671009
2707.8	-0.180951
2709.15	0.11283
2710.49	0.39197
2711.83	-0.0843244
2713.18	0.238161
2714.52	0.226466
2715.87	0.476429
2717.21	0.0719361
2718.55	0.510772
2719.9	0.55661
2721.24	0.354638
2722.58	0.079402
2723.93	0.458707
2725.27	0.430073
2726.61	0.590305
2727.95	0.342711
2729.29	0.196806
2730.63	0.283611
2731.98	0.574039
2733.32	0.340783
2734.66	0.471372
2736	0.471225
2737.34	0.209421
2738.68	0.0348921
2740.02	0.136479
2741.36	0.237637
2742.7	0.149205
2744.03	0.30726
2745.37	-0.160051
2746.71	-0.0755463
2748.05	-0.179989
2749.39	0.209002
2750.72	0.235259
2752.06	0.0877461
2753.4	0.215913
2754.74	0.184777
2756.07	-0.00554037
2757.41	0.00710869
2758.75	0.367393
2760.08	0.105515
2761.42	-0.112431
2762.76	0.060771
2764.09	-0.0262055
2765.42	-0.171041
2766.76	0.0599227
2768.09	0.376815
2769.43	0.186302
2770.76	-0.279922
2772.1	0.0186706
2773.43	-0.246868
2774.76	-0.00784397
2776.1	-0.0285811
2777.43	0.0661607
2778.76	0.362565
2780.1	-0.145743
2781.43	0.122427
2782.76	0.0315351
2784.09	-0.0736232
2785.42	0.150974
2786.75	-0.340732
2788.09	0.0560918
2789.42	0.009624
2790.75	-0.0932269
2792.08	0.147836
2793.41	0.131893
2794.74	-0.112662
2796.07	-0.114473
2797.4	-0.245306
2798.73	0.166054
2800.06	-0.0512886
2801.39	0.0594292
2802.71	0.155616
2804.04	-0.00503874
2805.37	-0.20862
2806.7	0.228044
2808.03	0.265283
2809.35	0.330492
2810.68	-0.0588431
2812.01	-0.163281
2813.33	0.0453978
2814.66	-0.0142326
2815.99	0.196758
2817.31	-0.0873632
2818.64	0.0117545
2819.96	0.29516
2821.29	0.266358
2822.61	0.0669098
2823.94	-0.118858
2825.26	-0.205705
2826.59	0.0615439
2827.91	0.23001
2829.23	-0.0399365
2830.56	-0.139556
2831.88	0.058291
2833.21	0.227777
2834.53	0.0714355
2835.85	0.353426
2837.17	-0.0584669
2838.5	0.859156
2839.82	0.545748
2841.14	0.897087
2842.46	1.06488
2843.78	0.823344
2845.1	1.03475
2846.42	1.1054
2847.74	1.33187
2849.06	1.33225
2850.38	1.45958
2851.71	1.61473
2853.03	1.37366
2854.34	1.34424
2855.66	1.35704
2856.98	1.75123
2858.3	1.86286
2859.62	1.79086
2860.94	2.22706
2862.26	1.84398
2863.57	2.1382
2864.89	2.30502
2866.21	2.41529
2867.53	2.93473
2868.84	2.49556
2870.16	2.57859
2871.48	2.63356
2872.79	2.61781
2874.11	3.26362
2875.42	2.97837
2876.74	2.95977
2878.05	3.29217
2879.37	3.31449
2880.68	3.25274
2882	3.27613
2883.31	3.52526
2884.63	3.14338
2885.94	3.19748
2887.26	3.01305
2888.57	3.33345
2889.88	3.30222
2891.19	3.27019
2892.51	3.25159
2893.82	3.21882
2895.13	3.01838
2896.44	3.01481
2897.76	3.7399
2899.07	3.48632
2900.38	3.45744
2901.69	3.52696
2903	3.31692
2904.31	3.5966
2905.62	3.72267
2906.93	3.75136
2908.24	3.96268
2909.55	4.24485
2910.86	3.85597
2912.17	4.3068
2913.48	4.74308
2914.79	3.84802
2916.1	4.92528
2917.41	4.51703
2918.71	4.80756
2920.02	4.65013
2921.33	4.99678
2922.64	5.0509
2923.94	5.13436
2925.25	4.60393
2926.56	5.62575
2927.86	5.36162
2929.17	5.6004
2930.48	5.20952
2931.78	5.53114
2933.09	5.33525
2934.39	5.68445
2935.7	5.67035
2937	5.54462
2938.31	4.80423
2939.61	5.16808
2940.92	5.1691
2942.22	4.82159
2943.53	4.8106
2944.83	4.3116
2946.13	3.84138
2947.43	4.14089
2948.74	4.14653
2950.04	4.19315
2951.34	3.72004
2952.64	4.07129
2953.95	3.7071
2955.25	3.62259
2956.55	3.84677
2957.85	3.48492
2959.15	3.60145
2960.45	3.63661
2961.75	3.44947
2963.05	3.41719
2964.35	2.93517
2965.65	3.1677
2966.95	2.99139
2968.25	3.08083
2969.55	3.02898
2970.85	2.85038
2972.15	2.72824
2973.45	2.84559
2974.75	2.96303
2976.05	2.61534
2977.34	2.54803
2978.64	2.60588
2979.94	2.74655
2981.24	2.35113
2982.53	2.32116
2983.83	2.54455
2985.13	2.2066
2986.42	2.081
2987.72	2.08325
2989.01	1.86164
2990.31	1.66838
2991.61	1.55903
2992.9	1.94063
2994.19	1.73079
2995.49	1.43572
2996.78	1.44906
2998.08	1.19553
2999.37	1.12478
3000.67	1.26489
3001.96	1.26527
3003.25	0.691537
3004.55	0.888726
3005.84	0.945534
3007.13	0.987761
3008.42	0.651419
3009.72	0.748123
3011.01	0.368944
3012.3	0.688032
3013.59	0.281155
3014.88	0.251641
3016.17	0.222771
3017.46	0.709729
3018.76	0.347816
3020.05	0.0559316
3021.34	0.2227
3022.63	0.194081
3023.92	0.275673
3025.21	0.356429
3026.49	0.298298
3027.78	0.102294
3029.07	0.0735025
3030.36	0.156587
3031.65	0.17184
3032.94	0.11902
3034.23	0.163165
3035.51	0.579329
3036.8	0.387266
3038.09	0.0836539
3039.38	0.260639
3040.66	-0.017787
3041.95	0.129208
3043.23	0.00157881
3044.52	0.326726
3045.81	0.365411
3047.09	0.091783
3048.38	0.421352
3049.66	0.0155816
3050.95	0.416554
3052.23	0.108678
3053.52	0.496769
3054.8	0.17482
3056.09	0.193075
3057.37	0.469369
3058.65	0.6084
3059.94	0.624448
3061.22	0.463894
3062.5	0.399593
3063.79	0.499755
3065.07	0.24783
3066.35	0.187547
3067.63	0.155377
3068.92	0.0283933
3070.2	0.241204
3071.48	0.235712
3072.76	0.120375
3074.04	0.24871
3075.32	0.362505
3076.6	0.000557899
3077.88	0.331568
3079.16	0.066246
3080.44	0.0872707
3081.72	0.299587
3083	-0.0702477
3084.28	0.388143
3085.56	0.195377
3086.84	0.205782
3088.12	0.419176
3089.4	0.156904
3090.67	0.192832
3091.95	0.228621
3093.23	0.0610833
3094.51	0.0295076
3095.78	-0.083138
3097.06	-0.154965
3098.34	-0.0777001
3099.61	0.21624
3100.89	-0.0725217
3102.17	-0.130831
3103.44	0.14961
3104.72	-0.016294
3105.99	0.11625
3107.27	-0.332314
3108.54	0.207942
3109.82	0.167255
3111.09	0.181607
3112.37	0.210231
3113.64	-0.00461626
3114.92	0.349751
3116.19	0.0666513
3117.46	0.325213
3118.74	0.243821
3120.01	0.39202
3121.28	0.0376983
3122.55	0.21166
3123.83	0.0466633
3125.1	0.125695
3126.37	0.0156035
3127.64	0.393166
3128.91	0.392271
3130.19	0.148359
3131.46	0.445397
3132.73	0.134115
3134	0.0118876
3135.27	0.429371
3136.54	0.441147
3137.81	0.048028
3139.08	0.315308
3140.35	0.0974731
3141.62	0.17594
3142.89	0.241131
3144.16	0.306664
3145.42	0.493391
3146.69	0.412374
3147.96	0.332097
3149.23	0.573802
