200.43	-0.257519
202.246	-0.223495
204.061	-0.188518
205.875	1.08784
207.688	0.928991
209.501	-0.591237
211.316	0.0989256
213.129	0.568192
214.941	0.332012
216.753	1.0891
218.566	-0.0682602
220.377	0.180344
222.188	0.284477
223.999	0.0993385
225.809	0.422441
227.618	0.141354
229.43	-0.188284
231.239	0.326339
233.047	0.719379
234.855	0.171961
236.663	0.156601
238.471	-0.145698
240.278	0.229641
242.087	0.0531197
243.894	0.0467215
245.7	0.257371
247.506	0.659466
249.311	-0.02812
251.116	0.173953
252.921	0.348495
254.725	-0.0341034
256.529	-0.103503
258.333	0.261728
260.136	0.170729
261.939	-0.0867662
263.744	0.476652
265.546	-0.621249
267.348	-0.20098
269.15	-0.0943604
270.951	0.011281
272.752	0.0914221
274.552	0.290407
276.353	0.24631
278.152	0.00724602
279.952	0.271805
281.751	0.076292
283.55	0.335779
285.348	0.13655
287.146	0.392732
288.942	0.384508
290.739	0.64057
292.536	-0.251287
294.333	-0.0160017
296.129	0.387937
297.925	0.0995998
299.721	0.337576
301.516	-0.213079
303.311	-0.262978
305.106	0.306193
306.9	0.0149546
308.694	0.0335569
310.486	-0.0665197
312.279	0.0490627
314.072	-0.0718117
315.864	0.309324
317.656	0.62102
319.448	0.338996
321.24	-0.0611811
323.029	0.874419
324.819	0.093524
326.61	0.553286
328.4	0.702668
330.19	0.684027
331.977	0.233353
333.766	0.330617
335.555	0.664727
337.343	0.565398
339.131	0.918111
340.917	0.240314
342.704	0.542108
344.491	0.819572
346.277	0.213561
348.062	0.492099
349.848	-0.183888
351.633	0.262143
353.416	-0.0324612
355.201	0.626044
356.986	-0.3866
358.77	0.363673
360.552	-0.055275
362.335	-0.212983
364.118	0.151743
365.899	0.372421
367.682	0.757886
369.464	0.311612
371.243	0.409972
373.025	0.223317
374.806	0.698277
376.585	-0.362228
378.365	0.136358
380.143	0.705517
381.923	0.662947
383.702	-0.130816
385.479	0.582243
387.258	0.450016
389.034	0.765407
390.812	0.0718136
392.59	0.10726
394.365	-0.0915499
396.142	0.391043
397.916	0.850229
399.693	0.0643692
401.467	0.475781
403.242	0.181797
405.015	0.661959
406.79	0.835822
408.565	0.633198
410.337	0.0311489
412.111	-0.570691
413.882	0.282833
415.656	0.245292
417.426	0.185096
419.197	-0.0621977
420.969	0.136611
422.739	0.593354
424.51	0.368558
426.279	0.236547
428.05	0.150505
429.819	0.157746
431.589	0.751649
433.356	0.547802
435.124	0.156537
436.893	0.070303
438.66	0.569978
440.428	0.833218
442.194	0.390238
443.96	0.836006
445.727	0.365359
447.492	0.268508
449.259	0.241371
451.023	0.0274086
452.787	0.467734
454.553	-0.375345
456.316	0.321093
458.079	0.946345
459.844	0.68635
461.606	0.148402
463.368	0.147301
465.132	0.706414
466.893	-0.102279
468.654	-0.187838
470.415	1.12386
472.177	0.483129
473.937	1.02819
475.696	0.826325
477.456	0.575181
479.217	0.414996
480.975	-0.0258741
482.733	0.58147
484.491	0.491323
486.251	0.82263
488.008	0.597247
489.765	0.513865
491.522	0.384832
493.278	0.139475
495.036	1.01643
496.791	1.05217
498.546	1.4625
500.301	0.676991
502.056	0.61694
503.81	0.955045
505.566	0.822194
507.319	1.25192
509.073	0.104023
510.825	0.671313
512.578	0.978068
514.33	0.0359583
516.082	0.95103
517.833	0.594239
519.587	0.330544
521.337	0.771084
523.088	0.412133
524.838	0.710472
526.588	0.961514
528.337	0.039957
530.087	0.454974
531.835	0.260105
533.584	0.790168
535.332	0.405923
537.08	0.745148
538.827	0.755233
540.574	0.670605
542.321	-0.346511
544.068	0.359924
545.814	0.832204
547.56	0.235928
549.305	0.846748
551.05	1.06277
552.795	0.815886
554.54	0.477312
556.284	0.185884
558.027	0.402763
559.771	0.0668287
561.514	0.537763
563.257	0.525537
564.999	0.307114
566.742	-0.0481377
568.481	0.0570526
570.223	0.00262737
571.964	-0.371466
573.705	-0.0325861
575.445	0.147614
577.185	0.237937
578.925	0.215026
580.665	0.101091
582.402	-0.541358
584.141	0.999047
585.879	0.308685
587.617	0.0995607
589.355	0.00403595
591.092	-0.184585
592.828	-0.0286856
594.564	-0.218102
596.301	0.397757
598.037	-0.0907602
599.773	-0.0505095
601.506	0.149858
603.242	-0.502181
604.976	-0.212802
606.711	0.465509
608.443	0.223568
610.177	0.142361
611.91	-0.419952
613.644	0.646972
615.374	0.613702
617.107	-0.267039
618.839	-0.277393
620.569	0.558058
622.3	0.727713
624.032	0.0274343
625.761	0.333237
627.491	0.525638
629.221	0.218019
630.949	-0.360606
632.679	0.112687
634.408	0.176492
636.135	0.0802145
637.863	0.301636
639.592	-0.0049057
641.318	0.575068
643.045	0.285377
644.77	0.359036
646.497	-0.317837
648.224	0.645002
649.948	0.360666
651.674	0.467053
653.398	-0.172168
655.123	0.328906
656.846	0.0592918
658.57	0.38288
660.293	0.683902
662.017	0.663985
663.738	0.390007
665.462	1.00462
667.185	0.771226
668.905	0.742663
670.628	0.325949
672.348	0.300207
674.067	0.597789
675.789	0.256545
677.508	0.742085
679.228	0.218267
680.947	0.267089
682.667	0.659122
684.385	0.865059
686.104	1.25304
687.821	0.533767
689.538	0.250689
691.256	0.45048
692.972	1.01812
694.69	0.364101
696.406	0.860559
698.121	0.112279
699.837	0.467658
701.552	0.591409
703.268	0.208269
704.982	1.04212
706.695	0.703699
708.41	1.00738
710.123	0.78314
711.836	0.742002
713.55	0.723423
715.262	0.636103
716.973	0.777201
718.685	0.667225
720.398	0.625996
722.108	0.858312
723.818	1.70462
725.53	0.798881
727.24	0.825644
728.949	1.73688
730.658	0.673521
732.369	0.472401
734.077	0.656108
735.785	1.24634
737.493	1.74552
739.2	0.936115
740.909	1.03087
742.616	1.39723
744.322	1.31449
746.028	0.760945
747.734	0.344389
749.441	0.896697
751.146	0.95557
752.851	0.768528
754.555	1.48291
756.26	1.09672
757.963	0.847112
759.667	1.13962
761.372	1.77204
763.075	1.90971
764.777	1.77633
766.479	1.16698
768.181	1.66252
769.883	1.70363
771.584	1.38049
773.285	1.39487
774.986	1.11474
776.686	2.21445
778.386	1.68776
780.085	2.13525
781.785	2.1998
783.484	1.92516
785.182	1.58117
786.881	1.12121
788.579	1.17835
790.276	1.32219
791.974	1.50791
793.671	2.0075
795.367	1.55834
797.064	1.94495
798.76	1.74737
800.456	1.25961
802.151	1.49396
803.846	1.54902
805.541	1.78375
807.236	1.11855
808.93	1.28363
810.624	1.55937
812.317	1.87848
814.01	1.50183
815.703	2.1329
817.394	1.82345
819.086	1.53694
820.778	1.98802
822.47	1.07775
824.161	1.50756
825.852	1.69333
827.543	1.65868
829.231	1.71637
830.921	0.797677
832.611	1.46359
834.3	1.90966
835.989	1.3092
837.676	1.31043
839.364	0.774484
841.053	1.50957
842.74	1.05941
844.426	2.06099
846.113	1.4992
847.8	1.36395
849.486	1.54462
851.171	1.1687
852.857	1.42195
854.542	1.92369
856.227	1.16848
857.911	1.30986
859.595	0.482018
861.279	1.11459
862.961	0.574586
864.645	0.641193
866.329	1.06752
868.01	0.907092
869.692	0.971622
871.375	0.968157
873.055	1.25777
874.737	1.43456
876.418	1.27294
878.097	1.11131
879.778	0.859249
881.457	1.05825
883.137	1.05329
884.817	1.49858
886.495	1.62614
888.174	0.623672
889.851	0.928226
891.53	1.18566
893.206	0.968303
894.884	1.78497
896.562	0.935369
898.237	1.20915
899.914	0.942877
901.589	0.564301
903.265	0.879683
904.94	0.769462
906.615	0.414235
908.289	0.796306
909.964	0.59949
911.637	1.24951
913.31	1.23233
914.984	0.771534
916.656	0.600086
918.33	0.517541
920.001	0.63458
921.674	1.34932
923.345	0.760065
925.015	0.615322
926.687	0.539069
928.357	0.619319
930.028	0.480284
931.698	0.320055
933.366	0.623469
935.037	0.949075
936.705	0.569359
938.373	0.499437
940.043	0.585279
941.71	1.13581
943.379	0.584197
945.046	0.319116
946.712	0.185176
948.378	0.711461
950.046	0.882348
951.711	0.323683
953.376	0.559398
955.043	0.708528
956.708	0.0669184
958.372	0.377152
960.036	0.337683
961.701	0.255777
963.364	-0.224198
965.027	0.775315
966.69	0.555848
968.354	0.88627
970.016	0.152304
971.678	0.0811586
973.339	0.673971
975	0.936607
976.661	-0.0592213
978.324	0.583273
979.984	0.352851
981.644	0.121908
983.303	0.896699
984.962	0.761714
986.621	1.46539
988.282	0.52929
989.94	1.07414
991.598	0.53472
993.256	-0.180957
994.913	0.362549
996.57	-0.0871925
998.227	0.896767
999.884	1.3725
1001.54	0.195554
1003.2	0.384121
1004.85	0.550082
1006.51	-0.207279
1008.16	0.222404
1009.82	0.388535
1011.47	0.949694
1013.12	0.108056
1014.78	0.801133
1016.43	0.530699
1018.08	0.96134
1019.74	0.473962
1021.39	0.381714
1023.04	0.771682
1024.69	0.485161
1026.34	0.46165
1028	0.591153
1029.65	0.938384
1031.3	0.563337
1032.95	1.47472
1034.6	0.35412
1036.25	0.628736
1037.9	0.640572
1039.55	0.913489
1041.19	0.751748
1042.84	1.09173
1044.49	1.25963
1046.14	0.495813
1047.79	1.08101
1049.43	0.603989
1051.08	0.95377
1052.73	0.305326
1054.37	-0.212562
1056.02	1.37761
1057.66	0.402923
1059.31	0.710157
1060.95	0.603594
1062.6	0.887533
1064.24	0.452866
1065.88	-0.0263605
1067.53	0.210643
1069.17	-0.0532799
1070.81	-0.0571098
1072.46	0.503294
1074.1	0.0222855
1075.74	0.258585
1077.38	0.973384
1079.02	0.670313
1080.66	-0.0654869
1082.3	0.15287
1083.94	0.738848
1085.58	0.217256
1087.22	0.34376
1088.86	-0.116867
1090.5	0.0919714
1092.14	0.234267
1093.78	1.06678
1095.42	-0.28117
1097.05	0.551427
1098.69	0.802672
1100.33	0.732763
1101.97	-0.066432
1103.6	0.0834751
1105.24	0.191811
1106.87	0.386838
1108.51	-0.106641
1110.15	0.0653944
1111.78	-0.0867872
1113.41	0.0816069
1115.05	-0.288275
1116.68	0.693187
1118.31	1.24467
1119.95	1.26064
1121.58	0.185806
1123.21	0.41883
1124.85	0.460278
1126.48	0.524108
1128.11	0.268069
1129.74	0.0770979
1131.37	0.0792484
1133	0.295537
1134.63	-0.364738
1136.26	-0.0637474
1137.89	0.300087
1139.52	-0.0638752
1141.15	0.233186
1142.78	-0.0254278
1144.41	0.18558
1146.04	0.397179
1147.66	0.0130148
1149.29	0.0987997
1150.92	-0.624284
1152.55	-0.346125
1154.17	0.421193
1155.8	-0.174479
1157.43	0.144954
1159.05	-0.0246019
1160.68	0.10459
1162.3	-0.147711
1163.93	0.239001
1165.55	-0.181642
1167.17	-0.198563
1168.8	0.229845
1170.42	0.0610857
1172.05	0.187708
1173.67	-0.197359
1175.29	0.901813
1176.91	-0.333195
1178.54	0.573368
1180.16	-0.192817
1181.78	-0.131976
1183.4	-0.112731
1185.02	-0.177944
1186.64	0.558323
1188.26	-0.100864
1189.88	0.10315
1191.5	-0.074358
1193.12	0.356625
1194.74	0.155624
1196.36	-0.0867186
1197.97	0.175133
1199.59	0.270983
1201.21	0.264853
1202.83	0.491445
1204.44	-0.218352
1206.06	-0.00723934
1207.68	0.163568
1209.29	0.334684
1210.91	0.212893
1212.52	-0.119199
1214.14	-0.328373
1215.75	0.272372
1217.37	0.14199
1218.98	0.0107145
1220.6	0.606124
1222.21	0.184934
1223.82	0.449693
1225.44	0.363771
1227.05	1.08672
1228.66	0.71437
1230.27	1.19152
1231.88	0.388233
1233.49	0.74404
1235.1	1.03923
1236.72	0.550431
1238.33	0.930949
1239.94	0.754119
1241.55	1.15658
1243.16	0.896831
1244.76	1.54654
1246.37	1.01567
1247.98	1.14576
1249.59	0.447333
1251.2	1.52783
1252.8	0.829408
1254.41	0.938597
1256.02	1.52477
1257.63	1.14023
1259.23	0.839685
1260.84	1.55427
1262.44	1.8558
1264.05	1.26684
1265.66	1.34012
1267.26	1.10167
1268.87	1.09007
1270.47	1.38828
1272.07	1.49867
1273.68	1.46269
1275.28	1.42554
1276.88	1.84318
1278.48	1.67955
1280.09	1.86729
1281.69	1.59916
1283.29	1.80722
1284.89	2.53273
1286.49	1.5637
1288.09	2.14656
1289.69	2.13106
1291.3	2.48816
1292.9	1.97732
1294.49	2.06481
1296.09	2.50178
1297.69	2.42032
1299.29	2.1099
1300.89	1.61247
1302.49	1.8147
1304.09	2.1183
1305.68	1.86532
1307.28	1.55064
1308.88	1.62606
1310.47	1.37343
1312.07	2.22726
1313.66	0.9942
1315.26	2.76832
1316.86	1.58017
1318.45	1.76148
1320.05	2.16665
1321.64	1.83679
1323.23	2.25863
1324.83	1.90503
1326.42	1.83478
1328.01	2.1695
1329.61	1.67384
1331.2	1.80821
1332.79	2.61174
1334.38	1.96306
1335.98	2.1244
1337.57	1.84256
1339.16	1.92311
1340.75	1.27648
1342.34	1.4334
1343.93	1.36659
1345.52	1.72023
1347.11	1.8726
1348.7	1.60599
1350.29	1.26274
1351.87	1.863
1353.46	0.785733
1355.05	0.670088
1356.64	1.33424
1358.23	2.07745
1359.81	1.6209
1361.4	1.34309
1362.99	1.50344
1364.57	1.38407
1366.16	1.52413
1367.74	1.16711
1369.33	1.1502
1370.91	1.75185
1372.5	1.28042
1374.08	0.591496
1375.67	1.59466
1377.25	1.1852
1378.83	1.03386
1380.42	0.941072
1382	0.986105
1383.58	1.18872
1385.16	1.231
1386.75	1.3919
1388.33	0.917361
1389.91	1.25781
1391.49	1.04343
1393.07	0.691216
1394.65	0.637108
1396.23	1.25702
1397.81	1.81631
1399.39	1.08604
1400.97	0.929675
1402.55	1.56457
1404.13	1.38759
1405.7	1.09275
1407.28	0.897975
1408.86	0.842617
1410.44	1.41995
1412.01	1.444
1413.59	0.421163
1415.17	0.996359
1416.74	0.584015
1418.32	0.940345
1419.89	1.17844
1421.47	1.33873
1423.05	1.8944
1424.62	1.64484
1426.19	1.94792
1427.77	1.34626
1429.34	1.25603
1430.92	1.63714
1432.49	1.97745
1434.06	1.31312
1435.63	1.98599
1437.2	1.99019
1438.78	2.27044
1440.35	1.62807
1441.92	2.36263
1443.49	2.50842
1445.06	2.3992
1446.63	2.38846
1448.2	2.22063
1449.77	2.21037
1451.34	3.00682
1452.91	2.42757
1454.48	2.73373
1456.05	2.7842
1457.62	2.04672
1459.18	2.6065
1460.75	2.06213
1462.32	2.26334
1463.89	1.85279
1465.45	2.22752
1467.02	2.24779
1468.59	2.28808
1470.15	1.34818
1471.72	1.13613
1473.28	1.70989
1474.85	1.32347
1476.41	1.70232
1477.98	1.3362
1479.54	1.10732
1481.11	0.819584
1482.67	0.688597
1484.23	0.851394
1485.8	0.798265
1487.36	1.11644
1488.92	1.17842
1490.48	1.37523
1492.05	1.10004
1493.61	0.822869
1495.17	0.173623
1496.73	0.986139
1498.29	0.784399
1499.85	0.603189
1501.41	0.811819
1502.97	0.536469
1504.53	0.669499
1506.09	0.0863438
1507.65	0.780027
1509.2	0.370017
1510.76	1.29111
1512.32	0.609393
1513.88	0.737348
1515.44	0.711362
1516.99	0.0909472
1518.55	0.623362
1520.1	0.772153
1521.66	0.404207
1523.22	0.992413
1524.77	0.89111
1526.33	0.84614
1527.88	0.647917
1529.44	1.38133
1530.99	0.669572
1532.55	1.23075
1534.1	0.825653
1535.65	1.12253
1537.21	0.834084
1538.76	1.20763
1540.31	0.958607
1541.86	1.08694
1543.42	0.612667
1544.97	1.58681
1546.52	1.41302
1548.07	0.789071
1549.62	1.55338
1551.17	1.7546
1552.72	1.52575
1554.27	2.23289
1555.82	1.31572
1557.37	1.59633
1558.92	1.9349
1560.47	1.99569
1562.02	2.05837
1563.57	2.15972
1565.11	2.14981
1566.66	2.38262
1568.21	2.2046
1569.75	1.91407
1571.3	2.25771
1572.85	2.377
1574.39	2.34677
1575.94	3.02592
1577.49	2.80926
1579.03	2.7051
1580.58	2.67635
1582.12	1.6587
1583.67	2.13599
1585.21	1.64267
1586.75	2.53303
1588.3	1.77833
1589.84	2.18288
1591.38	2.21284
1592.93	2.35461
1594.47	1.99037
1596.01	2.1318
1597.55	2.40498
1599.09	2.54788
1600.63	2.37283
1602.18	2.74244
1603.72	2.34249
1605.26	1.71592
1606.8	2.36524
1608.34	2.22315
1609.87	1.87161
1611.41	2.19395
1612.95	2.19445
1614.49	1.63035
1616.03	2.11678
1617.57	2.47188
1619.11	1.74133
1620.64	2.41768
1622.18	1.65352
1623.72	2.35081
1625.25	2.24305
1626.79	2.4526
1628.32	2.69791
1629.86	2.17462
1631.4	2.30474
1632.93	2.06065
1634.47	2.11584
1636	1.79872
1637.53	1.85591
1639.07	2.529
1640.6	2.49345
1642.14	2.88568
1643.67	2.43831
1645.2	2.47383
1646.73	2.24786
1648.27	3.41543
1649.8	2.00077
1651.33	2.25918
1652.86	2.37034
1654.39	1.98211
1655.92	2.0397
1657.45	2.80127
1658.98	2.33896
1660.51	2.20878
1662.04	2.35456
1663.57	2.31392
1665.1	2.18029
1666.63	2.69319
1668.16	2.15536
1669.69	2.09913
1671.21	2.19205
1672.74	2.21248
1674.27	1.79148
1675.79	1.75705
1677.32	1.57452
1678.85	1.53811
1680.37	1.62925
1681.9	1.42544
1683.42	1.58873
1684.95	1.34816
1686.47	1.01655
1688	1.14401
1689.52	1.25342
1691.05	0.886922
1692.57	1.06988
1694.1	0.64895
1695.62	0.794999
1697.14	1.15987
1698.66	1.30481
1700.19	0.81034
1701.71	0.133564
1703.23	0.751082
1704.75	0.729711
1706.27	0.562308
1707.79	0.776641
1709.32	0.282112
1710.83	0.296644
1712.35	-0.0150738
1713.88	0.0724535
1715.39	0.159891
1716.91	0.464159
1718.43	0.370167
1719.95	0.0595522
1721.47	0.146536
1722.99	0.7207
1724.5	0.484324
1726.02	-0.146606
1727.54	0.178341
1729.06	-0.233757
1730.57	0.630263
1732.09	0.982581
1733.61	0.519049
1735.12	0.412987
1736.64	0.354659
1738.15	0.0913277
1739.67	0.496465
1741.18	0.0167122
1742.7	0.177366
1744.21	0.837225
1745.72	-0.179131
1747.24	0.0783577
1748.75	0.192043
1750.26	-0.200748
1751.78	0.368197
1753.29	0.00886917
1754.8	0.196366
1756.31	-0.108657
1757.82	0.331367
1759.34	0.181705
1760.85	0.133058
1762.36	-0.213964
1763.87	0.0229778
1765.38	-0.100229
1766.89	0.554651
1768.4	0.293462
1769.91	0.164766
1771.41	0.313936
1772.92	-0.0537281
1774.43	0.0206079
1775.94	-0.14217
1777.45	-0.0547523
1778.96	0.0669441
1780.46	0.0471706
1781.97	0.105173
1783.48	0.00447083
1784.98	-0.0493822
1786.49	-0.122423
1788	-0.00974846
1789.5	0.232072
1791.01	0.310634
1792.51	-0.107793
1794.01	0.252178
1795.52	-0.0384922
1797.02	0.19073
1798.53	0.0924864
1800.03	0.208378
1801.54	-0.0375481
1803.04	0.408037
1804.54	0.140811
1806.04	0.0553207
1807.54	0.361915
1809.05	0.113722
1810.55	-0.10732
1812.05	0.227157
1813.55	0.47527
1815.05	0.0959377
1816.55	-0.152238
1818.05	-0.325339
1819.55	0.0335579
1821.05	0.377146
1822.55	-0.132877
1824.05	-0.187257
1825.55	-0.0279846
1827.05	0.25713
1828.55	0.0915565
1830.04	0.469499
1831.54	-0.139355
1833.04	0.0781975
1834.54	0.137507
1836.03	0.366801
1837.53	0.153862
1839.03	0.0480967
1840.52	0.0306606
1842.02	-0.286628
1843.51	-0.0604305
1845.01	-0.182166
1846.5	-0.0473881
1848	0.0938578
1849.49	0.111694
1850.99	0.0693588
1852.48	0.122991
1853.97	-0.28793
1855.47	-0.228437
1856.96	0.0112352
1858.45	-0.0149326
1859.94	-0.0819464
1861.44	0.230883
1862.93	0.258933
1864.42	-0.0595665
1865.91	-0.250789
1867.4	-0.030014
1868.89	0.00929356
1870.38	0.0769978
1871.87	0.140372
1873.36	0.025382
1874.85	0.151071
1876.34	-0.266694
1877.83	-0.0291405
1879.32	0.250093
1880.81	0.216912
1882.3	0.044486
1882.56	0.00962448
1884.06	0.235797
1885.55	0.112508
1887.04	0.632904
1888.54	0.055582
1890.03	-0.0859766
1891.52	0.0517883
1893.02	0.138841
1894.51	-0.0157804
1896	-0.377622
1897.49	0.252479
1898.99	0.239077
1900.48	0.276842
1901.97	0.156434
1903.46	-0.209123
1904.95	0.328151
1906.44	-0.195678
1907.93	0.357641
1909.42	-0.0262594
1910.91	0.146261
1912.4	-0.200864
1913.89	0.285156
1915.38	0.181493
1916.86	-0.061162
1918.35	0.0770845
1919.84	0.18016
1921.33	0.161834
1922.82	0.230496
1924.3	0.282673
1925.79	0.18014
1927.28	0.182505
1928.76	0.479822
1930.25	0.205698
1931.74	0.380971
1933.22	0.433567
1934.71	0.657454
1936.19	0.170114
1937.67	0.702271
1939.16	0.0583544
1940.64	-0.15275
1942.13	0.43103
1943.61	0.256284
1945.09	0.323917
1946.58	0.236707
1948.06	0.0803709
1949.54	0.354071
1951.03	0.247741
1952.51	0.38152
1953.99	0.428577
1955.47	-0.0400038
1956.95	0.0419111
1958.43	0.00424099
1959.91	-0.187088
1961.39	-0.292016
1962.87	-0.0710287
1964.35	-0.073143
1965.83	-0.298361
1967.31	0.297524
1968.79	0.310512
1970.27	0.169069
1971.75	0.505799
1973.22	0.10807
1974.7	0.0521088
1976.18	0.371351
1977.66	0.060132
1979.13	0.413226
1980.61	0.323562
1982.09	0.0128613
1983.56	0.160922
1985.04	0.410261
1986.52	0.404569
1987.99	0.246351
1989.47	0.512021
1990.94	0.456468
1992.41	0.418835
1993.89	0.128654
1995.36	-0.0253172
1996.84	0.277345
1998.31	0.410874
1999.78	0.425693
2001.26	0.0686464
2002.73	-0.170485
2004.2	0.281658
2005.67	-0.0919418
2007.15	-0.397156
2008.62	-0.078289
2010.09	0.375919
2011.56	0.123496
2013.03	0.123636
2014.5	-0.230042
2015.97	0.0213699
2017.44	0.13721
2018.91	0.353017
2020.38	-0.120794
2021.85	0.111055
2023.32	0.292636
2024.79	0.340606
2026.25	0.138103
2027.72	0.0376921
2029.19	0.190293
2030.66	0.394544
2032.13	0.180304
2033.59	-0.134354
2035.06	-0.113399
2036.53	0.327179
2037.99	-0.324733
2039.46	0.0310955
2040.92	0.403827
2042.39	0.709854
2043.85	0.259923
2045.32	0.180724
2046.78	0.203192
2048.25	0.327036
2049.71	0.0461798
2051.18	0.45537
2052.64	0.0200348
2054.1	0.594769
2055.56	0.105337
2057.03	0.0531178
2058.49	0.185541
2059.95	0.620899
2061.42	-0.374835
2062.88	0.701221
2064.34	0.380945
2065.8	0.600243
2067.26	0.248174
2068.72	0.40155
2070.18	0.471097
2071.64	0.608054
2073.1	0.879599
2074.56	-0.0783367
2076.02	1.00092
2077.48	0.86736
2078.94	0.901784
2080.39	0.615792
2081.85	0.463986
2083.31	0.64822
2084.77	0.410923
2086.22	0.526306
2087.68	0.74186
2089.14	0.671091
2090.6	1.00331
2092.05	1.04971
2093.51	1.21341
2094.96	1.24248
2096.42	0.91903
2097.87	1.1145
2099.33	1.0078
2100.78	1.13504
2102.24	1.27904
2103.69	0.972874
2105.15	0.902055
2106.6	0.432322
2108.05	1.39826
2109.51	1.64705
2110.96	1.19495
2112.41	1.64156
2113.86	1.02008
2115.32	1.37952
2116.77	1.32181
2118.22	1.5137
2119.67	1.97232
2121.12	1.5865
2122.57	1.58454
2124.02	1.65047
2125.47	1.88289
2126.92	1.88285
2128.37	2.04742
2129.82	1.91207
2131.27	2.02382
2132.72	2.11801
2134.17	2.31132
2135.62	2.12506
2137.06	2.1555
2138.51	1.98971
2139.96	2.50366
2141.41	1.68067
2142.85	2.2806
2144.3	2.02147
2145.75	2.45739
2147.19	2.26413
2148.64	2.21906
2150.09	2.60372
2151.53	3.02049
2152.97	2.93904
2154.42	2.85662
2155.86	2.74053
2157.31	3.15465
2158.75	3.03953
2160.2	2.62781
2161.64	2.99681
2163.08	2.87093
2164.53	2.99556
2165.97	2.67307
2167.41	3.13087
2168.86	2.92299
2170.3	2.86245
2171.74	2.31697
2173.18	2.91703
2174.62	2.75026
2176.06	2.68267
2177.5	2.78162
2178.94	2.43255
2180.38	2.61665
2181.82	3.13431
2183.26	2.52198
2184.7	2.72476
2186.14	2.79462
2187.58	3.06419
2189.02	2.55172
2190.46	2.57169
2191.89	2.12519
2193.33	2.39369
2194.77	2.52749
2196.21	2.65914
2197.64	1.77349
2199.08	1.88457
2200.52	2.39312
2201.95	2.17028
2203.39	2.04805
2204.83	1.79455
2206.26	1.97332
2207.7	1.98685
2209.13	2.11605
2210.57	1.43327
2212	1.75916
2213.43	1.58795
2214.87	1.71416
2216.3	1.90689
2217.73	1.73771
2219.17	1.55355
2220.6	1.20557
2222.03	1.59955
2223.47	1.74537
2224.9	1.69193
2226.33	1.32405
2227.76	0.872808
2229.19	1.07805
2230.62	1.54453
2232.05	0.764414
2233.49	1.21391
2234.91	1.14001
2236.34	1.00214
2237.77	1.42116
2239.2	1.18904
2240.63	0.681912
2242.06	0.975952
2243.49	0.700368
2244.92	1.25697
2246.35	0.850534
2247.78	1.14381
2249.2	0.782603
2250.63	0.826814
2252.06	0.36461
2253.48	0.878123
2254.91	0.562446
2256.34	0.00521183
2257.76	0.31086
2259.19	0.716373
2260.61	0.816513
2262.04	0.188714
2263.46	0.763658
2264.89	0.608258
2266.31	0.728727
2267.74	0.441811
2269.16	0.853551
2270.59	0.532203
2272.01	0.942922
2273.43	0.718485
2274.85	0.966447
2276.28	0.38375
2277.7	0.941806
2279.12	0.505763
2280.54	0.623864
2281.97	0.627725
2283.39	0.435728
2284.81	0.406867
2286.23	-0.176774
2287.65	0.447865
2289.07	0.305656
2290.49	0.392499
2291.91	0.365258
2293.33	0.289038
2294.75	0.163647
2296.17	0.545499
2297.59	0.567359
2299.01	0.50738
2300.42	0.300026
2301.84	0.0435619
2303.26	0.377739
2304.68	0.581096
2306.1	0.0948095
2307.51	0.166364
2308.93	0.484039
2310.35	0.357394
2311.76	0.657958
2313.18	0.497965
2314.59	-0.139059
2316.01	0.52499
2317.43	0.00420284
2318.84	-0.00570393
2320.26	0.429476
2321.67	0.385459
2323.08	0.0589972
2324.5	0.175879
2325.91	0.587545
2327.33	0.700403
2328.74	0.729995
2330.15	0.232691
2331.56	-0.049221
2332.98	-0.32987
2334.39	-0.313424
2335.8	0.147389
2337.21	0.393742
2338.62	-0.232339
2340.04	0.209137
2341.45	0.402891
2342.86	0.4154
2344.27	-0.0805168
2345.68	0.211142
2347.09	0.0932436
2348.5	0.564791
2349.91	0.0538626
2351.31	-0.032093
2352.72	-0.363817
2354.13	0.136343
2355.54	0.537055
2356.95	0.00853157
2358.36	0.213017
2359.76	-0.118971
2361.17	0.101649
2362.58	-0.16459
2363.98	-0.252209
2365.39	0.0647469
2366.8	-0.0874453
2368.21	-0.254903
2369.61	-0.275917
2371.02	0.494144
2372.42	0.378494
2373.83	0.215637
2375.23	0.326916
2376.64	0.196383
2378.04	0.466929
2379.44	0.205346
2380.85	0.311799
2382.25	0.33649
2383.66	0.568438
2385.06	0.335736
2386.46	0.415547
2387.86	0.496068
2389.26	0.458048
2390.67	0.230174
2392.07	0.401774
2393.47	0.0650015
2394.87	0.11105
2396.27	0.300815
2397.67	0.125531
2399.07	0.0303421
2400.47	0.0468664
2401.87	0.0954466
2403.27	0.318743
2404.67	0.493961
2406.07	-0.442913
2407.47	-0.332736
2408.87	0.0621014
2410.27	0.0758142
2411.67	0.359062
2413.07	0.326139
2414.46	0.516144
2415.86	-0.0681562
2417.26	0.267043
2418.66	0.365679
2420.05	0.0529232
2421.45	0.278507
2422.84	0.0126944
2424.24	0.380339
2425.64	0.526291
2427.03	0.514317
2428.43	0.138577
2429.82	-0.0144701
2431.22	0.420099
2432.61	-0.0337944
2434.01	0.432551
2435.4	0.230886
2436.79	-0.00408173
2438.19	-0.0657301
2439.58	0.0620565
2440.97	0.284201
2442.37	0.235818
2443.76	0.107863
2445.15	0.0432901
2446.54	0.137167
2447.93	-0.0702591
2449.33	0.134327
2450.72	0.117293
2452.11	0.227408
2453.5	0.29074
2454.89	0.228316
2456.28	0.229856
2457.67	0.152607
2459.06	-0.0829535
2460.45	0.0289116
2461.84	0.266456
2463.23	-0.113307
2464.62	0.217622
2466	-0.0679007
2467.39	0.246577
2468.78	-0.0546207
2470.17	0.212008
2471.55	-0.19985
2472.94	0.475065
2474.33	0.188092
2475.72	0.545834
2477.1	0.399702
2478.49	-0.248768
2479.87	0.359288
2481.26	-0.0682831
2482.65	-0.0879116
2484.03	0.330359
2485.42	-0.0662222
2486.8	0.00560665
2488.19	-0.173419
2489.57	-0.00983715
2490.95	0.122067
2492.34	0.0831614
2493.72	0.0919542
2495.1	0.241615
2496.49	0.283734
2497.87	0.171728
2499.25	0.261339
2500.63	-0.0980511
2502.02	0.160548
2503.4	0.0935192
2504.78	-0.0822029
2506.16	-0.335163
2507.54	-0.264581
2508.92	0.297901
2510.3	0.168531
2511.68	0.024703
2513.06	0.234437
2514.44	0.0923777
2515.82	-0.0945587
2517.2	-0.311131
2518.58	0.268028
2519.96	0.235521
2521.34	-0.102664
2522.72	-0.395282
2524.1	-0.0934353
2525.47	-0.0365458
2526.85	0.0200138
2528.23	-0.197002
2529.6	-0.00214005
2530.98	0.513166
2532.36	-0.0794144
2533.74	0.119516
2535.11	0.319095
2536.49	0.0932255
2537.86	-0.102876
2539.24	0.0191317
2540.61	0.109931
2541.99	0.503877
2543.36	0.351647
2544.74	0.124492
2546.11	0.0502653
2547.49	0.235065
2548.86	0.329693
2550.23	0.0146961
2551.61	-0.240152
2552.98	0.0656548
2554.35	0.355285
2555.72	0.128119
2557.09	0.0218811
2558.47	-0.433162
2559.84	0.036993
2561.21	0.0375967
2562.58	0.296431
2563.95	0.404248
2565.32	0.0578651
2566.69	-0.0155239
2568.06	-0.179764
2569.43	0.504722
2570.8	0.204089
2572.17	0.221773
2573.54	-0.0939517
2574.91	0.211918
2576.28	0.533026
2577.65	-0.176927
2579.02	0.341026
2580.39	0.0398579
2581.75	-0.155553
2583.12	0.0125933
2584.49	0.241127
2585.85	-0.167075
2587.22	0.531351
2588.59	0.16896
2589.95	-0.0568876
2591.32	0.156622
2592.68	0.460544
2594.05	0.400002
2595.42	0.00533867
2596.78	-0.0115709
2598.15	-0.0897102
2599.51	0.209865
2600.88	0.206996
2602.24	-0.00681067
2603.6	-0.144308
2604.97	0.262041
2606.33	-0.251872
2607.69	0.184234
2609.06	-0.0138488
2610.42	0.254067
2611.78	0.264478
2613.14	-0.072072
2614.51	-0.15334
2615.87	0.050427
2617.23	-0.270645
2618.59	0.0384402
2619.95	0.138226
2621.31	-0.299729
2622.67	0.219692
2624.03	0.0965514
2625.39	0.0182796
2626.75	-0.0601244
2628.11	0.203988
2629.47	-0.00904369
2630.83	-0.1178
2632.19	-0.137293
2633.55	-0.171657
2634.91	0.0463157
2636.26	0.0118012
2637.62	-0.215304
2638.98	0.120625
2640.34	0.263847
2641.69	-0.0363994
2643.05	0.269731
2644.41	0.0146089
2645.76	0.20233
2647.12	0.507314
2648.48	0.104129
2649.83	0.0393271
2651.19	0.268018
2652.54	0.187556
2653.9	0.224842
2655.25	0.145525
2656.6	0.477469
2657.96	0.38563
2659.31	0.324025
2660.67	0.452945
2662.02	0.318526
2663.37	0.110638
2664.73	0.223341
2666.08	0.13097
2667.43	0.198594
2668.78	-0.258178
2670.14	0.217213
2671.49	-0.194493
2672.84	-0.00934267
2674.19	0.524684
2675.54	0.0572143
2676.89	-0.206171
2678.24	0.270912
2679.59	-0.23746
2680.94	0.139678
2682.29	0.0684657
2683.64	-0.277165
2684.99	0.393259
2686.34	-0.0672426
2687.69	-0.455656
2689.04	0.49029
2690.39	0.316899
2691.74	0.403033
2693.08	-0.136208
2694.43	0.295689
2695.78	0.0458236
2697.13	0.36173
2698.47	0.0704474
2699.82	0.128372
2701.17	0.361706
2702.51	0.480702
2703.86	0.310982
2705.21	0.141607
2706.55	0.305714
2707.9	-0.0526848
2709.24	0.168913
2710.58	0.157956
2711.93	0.437277
2713.27	0.178973
2714.62	0.167551
2715.96	0.0542746
2717.3	0.580738
2718.65	0.17616
2719.99	0.0911593
2721.33	0.151229
2722.68	0.0507483
2724.02	0.211804
2725.36	0.052227
2726.71	0.416276
2728.05	-0.122368
2729.39	0.255652
2730.73	0.211485
2732.07	0.370973
2733.41	0.763254
2734.75	0.544718
2736.09	0.137331
2737.43	0.457304
2738.77	0.559068
2740.11	0.00617552
2741.45	0.33989
2742.79	0.294899
2744.13	0.11846
2745.47	0.173981
2746.81	0.229054
2748.14	0.138748
2749.48	0.411276
2750.82	0.625761
2752.16	0.289418
2753.49	0.0549841
2754.83	0.241014
2756.17	-0.311613
2757.5	0.410424
2758.84	0.0900636
2760.18	0.349128
2761.51	0.159974
2762.85	0.463279
2764.18	0.144677
2765.52	-0.000299454
2766.85	0.273846
2768.19	-0.147264
2769.52	0.356032
2770.86	-0.0240488
2772.19	0.0427241
2773.52	-0.0358591
2774.86	0.0581775
2776.19	-0.164861
2777.52	-0.0561948
2778.86	-0.162894
2780.19	-0.0965281
2781.52	0.185438
2782.85	0.280544
2784.19	-0.140829
2785.52	0.0259418
2786.85	0.221318
2788.18	-0.14132
2789.51	-0.0879402
2790.84	0.137845
2792.17	0.0782533
2793.5	0.219245
2794.83	0.0600743
2796.16	-0.0564823
2797.49	-0.0449352
2798.82	0.051743
2800.15	0.00521898
2801.48	-0.298288
2802.81	-0.00285339
2804.13	-0.121238
2805.46	-0.197181
2806.79	0.210317
2808.12	0.317973
2809.45	0.0413465
2810.77	0.120194
2812.1	0.199508
2813.43	0.152173
2814.75	-0.233995
2816.08	0.18932
2817.41	-0.0100584
2818.73	0.358052
2820.06	-0.152603
2821.38	0.300102
2822.71	0.199401
2824.03	0.395662
2825.36	-0.00340366
2826.68	-0.0482111
2828	0.303911
2829.33	0.486593
2830.65	0.499828
2831.98	0.385864
2833.3	0.526631
2834.62	0.681213
2835.94	0.453166
2837.27	0.889678
2838.59	0.589983
2839.91	1.0539
2841.23	1.40457
2842.55	1.23252
2843.87	1.30146
2845.2	1.58311
2846.52	1.2577
2847.84	2.09153
2849.16	2.0209
2850.48	2.00647
2851.8	2.34486
2853.12	2.56958
2854.44	1.97425
2855.76	2.05707
2857.08	2.25285
2858.39	2.63225
2859.71	2.74319
2861.03	2.37383
2862.35	2.48423
2863.67	2.86236
2864.98	3.02835
2866.3	3.19424
2867.62	3.10648
2868.94	3.27303
2870.25	3.2708
2871.57	3.63523
2872.88	3.6328
2874.2	3.40409
2875.52	4.14623
2876.83	4.09813
2878.15	4.00693
2879.46	4.08428
2880.78	3.96514
2882.09	3.98752
2883.41	4.22173
2884.72	4.20415
2886.03	4.1311
2887.35	4.59147
2888.66	4.19518
2889.97	4.37334
2891.29	4.07368
2892.6	4.15201
2893.91	4.2581
2895.22	3.90245
2896.54	4.44379
2897.85	4.23033
2899.16	4.56374
2900.47	4.7021
2901.78	4.92489
2903.09	4.68629
2904.4	4.68565
2905.71	4.46152
2907.02	5.30107
2908.33	4.96659
2909.64	4.81485
2910.95	5.6293
2912.26	5.82818
2913.57	6.15223
2914.88	6.05464
2916.19	5.81507
2917.5	6.14759
2918.81	6.15699
2920.11	6.54385
2921.42	6.44191
2922.73	6.77482
2924.04	6.95554
2925.34	7.30536
2926.65	6.59352
2927.96	7.33554
2929.26	7.21038
2930.57	7.55988
2931.87	7.44745
2933.18	7.46054
2934.49	7.13816
2935.79	7.55668
2937.1	7.52815
2938.4	7.41601
2939.7	6.75925
2941.01	6.50834
2942.31	6.63571
2943.62	6.42909
2944.92	6.90898
2946.22	6.03398
2947.53	5.66266
2948.83	5.78065
2950.13	5.77142
2951.43	5.97021
2952.74	5.13065
2954.04	5.38176
2955.34	5.32443
2956.64	5.3661
2957.94	5.3541
2959.24	4.85511
2960.54	5.11522
2961.84	5.34989
2963.15	5.12278
2964.45	5.09124
2965.75	4.38374
2967.05	4.48889
2968.34	4.19905
2969.64	4.18948
2970.94	3.82816
2972.24	4.07194
2973.54	3.87997
2974.84	3.63157
2976.14	3.77661
2977.43	3.31483
2978.73	3.56932
2980.03	3.30106
2981.33	3.21449
2982.62	2.90239
2983.92	3.25168
2985.22	2.63215
2986.51	2.71709
2987.81	2.63493
2989.11	2.48354
2990.4	2.73997
2991.7	1.70289
2992.99	2.07018
2994.29	1.98646
2995.58	1.52241
2996.88	1.84423
2998.17	1.56213
2999.46	1.68732
3000.76	1.47646
3002.05	1.37847
3003.34	1.21091
3004.64	1.12761
3005.93	0.974088
3007.22	0.736097
3008.52	0.721383
3009.81	0.69186
3011.1	1.1926
3012.39	0.673012
3013.68	0.544854
3014.97	0.194276
3016.27	0.360284
3017.56	0.304058
3018.85	0.582341
3020.14	0.2485
3021.43	0.289898
3022.72	0.330448
3024.01	0.4949
3025.3	0.200848
3026.59	0.405773
3027.88	0.458591
3029.16	-0.1097
3030.45	0.388103
3031.74	0.306791
3033.03	0.185165
3034.32	0.326142
3035.6	0.356148
3036.89	0.329721
3038.18	0.287842
3039.47	0.381854
3040.75	0.39168
3042.04	0.345713
3043.33	0.656205
3044.61	0.282385
3045.9	0.786134
3047.18	0.526181
3048.47	0.39185
3049.75	0.327995
3051.04	0.552299
3052.32	0.872921
3053.61	0.306649
3054.89	0.408368
3056.18	0.331764
3057.46	0.513192
3058.74	0.107862
3060.03	0.628657
3061.31	0.50969
3062.59	0.527857
3063.88	0.601819
3065.16	0.378231
3066.44	0.38719
3067.72	0.682688
3069	0.448333
3070.29	0.213689
3071.57	0.359042
3072.85	0.312848
3074.13	0.0480156
3075.41	0.0679078
3076.69	-0.292699
3077.97	0.0125666
3079.25	0.291498
3080.53	0.341164
3081.81	-0.231598
3083.09	-0.0842099
3084.37	0.0503364
3085.65	0.185052
3086.93	0.34655
3088.21	-0.0490832
3089.49	0.219756
3090.76	0.271019
3092.04	0.0644164
3093.32	0.170066
3094.6	-0.185054
3095.87	0.205981
3097.15	0.108997
3098.43	0.18824
3099.7	-0.437216
3100.98	-0.15477
3102.26	0.100558
3103.53	-0.131308
3104.81	0.233035
3106.08	0.124348
3107.36	0.382003
3108.63	0.0317273
3109.91	0.00729227
3111.18	0.26817
3112.46	0.435204
3113.73	0.26406
3115	0.391042
3116.28	-0.0111437
3117.55	0.35885
3118.83	0.280336
3120.1	0.648358
3121.37	-0.096333
3122.64	0.4329
3123.92	0.487465
3125.19	0.43393
3126.46	-0.187468
3127.73	0.166294
3129	0.276941
3130.27	0.225662
3131.55	0.620665
3132.82	0.0559912
3134.09	0.301872
3135.36	0.412105
3136.63	-0.0178623
3137.9	0.482576
3139.17	0.268061
3140.44	0.444126
3141.71	0.485591
3142.98	0.487051
3144.24	0.435349
3145.51	0.545402
3146.78	0.629225
3148.05	0.418931
3149.32	0.370227
