200.43	1.23434
202.244	1.23421
204.059	1.23544
205.873	0.678435
207.688	1.0706
209.501	1.00053
211.314	0.68695
213.127	0.858299
214.941	1.12571
216.753	0.422951
218.564	1.17466
220.375	0.522342
222.186	0.597535
223.999	0.770386
225.809	0.91966
227.618	0.779238
229.428	0.252497
231.236	0.546578
233.045	0.792076
234.855	-0.215999
236.663	0.151894
238.471	-0.129185
240.278	-0.166961
242.085	0.0866613
243.891	0.12473
245.698	0.211292
247.503	0.92458
249.309	0.332094
251.116	0.437286
252.921	0.974617
254.725	0.786363
256.529	0.308762
258.333	0.242176
260.136	0.899986
261.939	0.0900316
263.742	0.0767126
265.544	0.715057
267.346	0.269647
269.148	1.07745
270.949	0.775953
272.75	0.835183
274.55	0.72453
276.351	0.805438
278.15	0.426933
279.95	0.866023
281.749	0.580794
283.548	0.438751
285.346	0.223743
287.144	0.992652
288.942	0.705134
290.739	0.203387
292.536	0.90054
294.333	0.474034
296.129	0.264652
297.925	0.630134
299.721	0.518135
301.514	0.310646
303.309	0.0549583
305.104	0.275849
306.898	-0.028923
308.692	0.357843
310.486	0.840095
312.279	0.275202
314.072	0.80755
315.862	0.174846
317.654	0.258211
319.446	0.53368
321.238	0.548375
323.029	0.492382
324.819	0.222091
326.608	0.715724
328.398	0.278122
330.188	0.24592
331.977	0.0931749
333.766	0.417459
335.553	0.859746
337.341	0.342914
339.129	0.877072
340.917	0.692093
342.704	0.554392
344.489	0.464617
346.275	0.0888271
348.062	0.7646
349.845	0.0321035
351.631	0.565038
353.416	-0.095768
355.201	0.626528
356.984	-0.035779
358.768	0.350038
360.552	0.281952
362.333	0.47496
364.116	0.714614
365.899	0.311831
367.68	0.85854
369.462	0.123034
371.243	-0.019495
373.023	0.500206
374.804	0.356734
376.585	0.591387
378.363	-0.164316
380.143	0.377999
381.923	0.991051
383.7	0.287271
385.479	0.173288
387.256	0.0135517
389.034	0.74762
390.812	0.918635
392.588	0.362427
394.365	0.206128
396.14	-0.161157
397.916	0.48158
399.691	0.654531
401.467	0.0755453
403.24	0.106732
405.015	0.654013
406.788	0.0968504
408.563	0.19678
410.335	0.0616808
412.109	0.419541
413.88	0.261458
415.654	-0.552904
417.424	0.346326
419.197	0.260698
420.967	-0.0593929
422.739	-0.544054
424.508	0.308785
426.279	-0.224161
428.048	0.0169172
429.819	0.327991
431.587	-0.0181751
433.356	0.621723
435.124	0.32316
436.891	0.0246115
438.66	0.26531
440.426	0.0823603
442.194	0.202749
443.96	-0.0539274
445.725	0.344076
447.492	0.436105
449.257	0.153418
451.021	-0.362306
452.787	0.0802402
454.551	0.102433
456.314	-0.224999
458.079	0.216498
459.842	0.610837
461.604	0.191323
463.368	0.261761
465.13	0.26455
466.891	-0.334268
468.654	-0.140758
470.415	0.542892
472.175	0.390214
473.935	0.492846
475.696	0.174783
477.456	0.553514
479.215	0.534614
480.973	0.305181
482.733	0.0759144
484.491	-0.0358973
486.249	-0.169405
488.006	0.701025
489.765	0.571463
491.522	0.185886
493.278	-0.0829353
495.034	0.536617
496.789	0.595469
498.544	0.60732
500.301	0.102885
502.056	0.559309
503.81	0.545906
505.564	0.0378962
507.317	0.750944
509.071	0.522251
510.825	0.362587
512.578	0.460323
514.33	0.603786
516.082	0.722453
517.833	0.181477
519.585	0.486294
521.335	0.954641
523.086	0.999354
524.836	0.527456
526.586	0.243711
528.335	-0.110051
530.085	0.731625
531.835	0.916236
533.584	0.584945
535.332	0.253058
537.08	0.504735
538.827	0.0309591
540.574	0.373388
542.321	0.155293
544.068	-0.0626183
545.814	-0.256802
547.56	0.0834217
549.305	0.0985088
551.05	0.136908
552.795	-0.0559301
554.54	0.537425
556.282	0.321898
558.025	0.0148859
559.769	-0.175933
561.512	0.692947
563.255	-0.0951767
564.997	0.428524
566.739	0.285939
568.481	-0.269028
570.223	-0.340687
571.964	0.299992
573.705	0.322493
575.443	0.438304
577.183	0.417959
578.923	0.100348
580.663	0.0587273
582.402	0.499722
584.141	0.457896
585.879	0.691111
587.615	0.233205
589.353	-0.0188637
591.09	0.21139
592.828	0.14208
594.564	-0.617593
596.299	0.302279
598.035	0.00274563
599.771	0.163044
601.506	0.437628
603.242	0.435024
604.974	0.201247
606.709	0.0124884
608.443	-0.590124
610.177	-0.320042
611.908	-0.187532
613.642	0.28939
615.374	0.10185
617.105	0.464462
618.837	0.597343
620.569	0.0195456
622.3	0.10475
624.03	0.0747976
625.761	0.296124
627.491	0.90616
629.219	0.536086
630.949	0.350826
632.677	0.0304508
634.406	0.441257
636.135	0.189957
637.861	0.165451
639.59	0.868942
641.318	0.565559
643.043	1.12641
644.77	0.318952
646.495	0.241133
648.222	0.324106
649.948	-0.499241
651.672	0.0667734
653.398	0.386204
655.121	0.93636
656.846	0.442179
658.569	0.472097
660.293	0.227932
662.015	0.758447
663.738	0.465017
665.46	0.626393
667.183	0.420268
668.903	0.533561
670.626	0.372931
672.346	0.442698
674.067	0.148224
675.787	0.68023
677.508	0.0901251
679.226	-0.0646725
680.947	0.538075
682.665	0.611136
684.385	0.682412
686.102	0.821037
687.821	0.77404
689.538	0.749073
691.254	0.493079
692.972	0.144388
694.688	0.854591
696.406	0.688635
698.121	0.797954
699.835	0.814017
701.552	0.438041
703.266	0.843116
704.98	0.948425
706.695	0.823581
708.409	0.629755
710.121	1.00872
711.836	1.29511
713.548	1.26049
715.26	0.79153
716.973	0.68865
718.685	1.1107
720.396	0.757231
722.108	0.882704
723.818	0.780485
725.528	0.678329
727.238	1.25748
728.949	1.44942
730.658	1.36852
732.367	0.970347
734.075	0.844274
735.785	0.899286
737.493	1.29321
739.2	1.2358
740.907	1.15681
742.614	1.05648
744.322	0.979976
746.028	1.66992
747.734	0.875862
749.439	1.63535
751.144	0.821447
752.849	1.22328
754.555	0.929009
756.26	0.703378
757.963	1.33447
759.667	0.931182
761.37	2.0389
763.073	1.20836
764.775	1.57307
766.477	1.62094
768.179	1.2829
769.883	1.28183
771.584	1.2337
773.285	1.41042
774.986	1.15707
776.686	1.4242
778.386	1.78293
780.085	1.50988
781.785	1.62232
783.484	1.75761
785.182	1.48451
786.881	1.72992
788.579	1.76872
790.276	1.44256
791.974	1.72463
793.671	1.62082
795.367	1.83273
797.064	1.61683
798.76	1.92073
800.456	2.13587
802.151	1.76719
803.846	2.09662
805.541	1.43654
807.234	1.85485
808.928	2.0246
810.622	1.56467
812.315	1.86697
814.008	2.19064
815.701	1.77475
817.394	2.05292
819.086	1.77194
820.778	2.16148
822.468	1.4128
824.159	1.95912
825.85	1.99349
827.541	2.23025
829.231	2.29129
830.921	2.19931
832.609	1.57528
834.298	1.66593
835.987	2.00296
837.676	1.78229
839.364	1.31472
841.051	2.11857
842.738	2.05027
844.426	0.730058
846.113	0.773246
847.798	1.15329
849.484	1.35681
851.171	1.58519
852.857	1.41228
854.54	1.48667
856.226	1.83064
857.911	1.09508
859.593	1.41436
861.278	1.3272
862.961	1.21595
864.645	1.64435
866.327	1.28315
868.01	1.12412
869.692	1.39312
871.373	1.36868
873.055	1.16356
874.735	1.25163
876.416	1.42998
878.097	1.33756
879.776	1.01928
881.457	0.723198
883.135	1.32949
884.815	1.03183
886.495	1.07158
888.172	1.56117
889.851	1.21452
891.528	0.889458
893.206	1.01408
894.882	0.484948
896.56	0.450414
898.237	0.684593
899.912	1.59042
901.589	0.678612
903.263	0.52936
904.94	0.67082
906.614	1.25854
908.289	1.44406
909.962	0.895066
911.635	1.21563
913.31	0.936081
914.982	0.946042
916.656	0.956016
918.328	1.12106
920.001	0.6659
921.672	0.610233
923.345	0.688207
925.015	0.72326
926.685	1.70924
928.357	0.223932
930.026	0.903035
931.698	0.523428
933.366	1.60014
935.035	1.0886
936.705	1.06275
938.373	1.10382
940.041	0.638659
941.71	0.79209
943.377	0.946229
945.044	1.4314
946.712	1.03276
948.378	1.58164
950.044	1.20171
951.709	0.754669
953.376	0.991625
955.041	0.678528
956.706	0.742676
958.372	0.434608
960.036	0.967345
961.699	0.640719
963.362	0.910376
965.027	0.626011
966.69	0.250636
968.352	0.713599
970.014	0.555263
971.676	0.528919
973.339	0.591393
975	0.433931
976.661	0.941462
978.322	0.21169
979.982	0.212321
981.642	0.212654
983.303	0.344731
984.962	1.00651
986.621	1.0687
988.28	0.90799
989.938	0.525172
991.596	0.539996
993.254	0.0687294
994.911	0.0837145
996.57	0.23114
998.227	0.642976
999.884	0.238806
1001.54	0.473444
1003.2	0.729414
1004.85	0.566908
1006.51	0.382547
1008.16	0.220509
1009.82	0.93673
1011.47	0.490092
1013.12	0.504654
1014.78	0.650958
1016.43	0.666093
1018.08	0.594136
1019.74	0.0636454
1021.39	0.234045
1023.04	0.776853
1024.69	0.227571
1026.34	0.443757
1028	0.659927
1029.65	0.766273
1031.3	0.0634394
1032.95	0.844272
1034.6	-0.253465
1036.25	0.34968
1037.9	0.602654
1039.54	0.419787
1041.19	0.390007
1042.84	0.991746
1044.49	0.66013
1046.14	0.0915451
1047.78	0.284881
1049.43	0.631606
1051.08	0.566802
1052.72	0.611316
1054.37	1.00386
1056.02	0.157716
1057.66	0.354451
1059.31	-0.275356
1060.95	0.224884
1062.6	0.833253
1064.24	0.679762
1065.88	0.416698
1067.53	0.370152
1069.17	0.540057
1070.81	-0.311408
1072.45	0.595995
1074.1	0.461538
1075.74	-0.0190001
1077.38	0.672877
1079.02	0.346472
1080.66	0.627931
1082.3	0.345604
1083.94	0.799773
1085.58	0.0601492
1087.22	0.511048
1088.86	0.764795
1090.5	0.237702
1092.14	0.380602
1093.78	0.717161
1095.42	0.103897
1097.05	0.656485
1098.69	0.347747
1100.33	-0.238938
1101.96	-0.134902
1103.6	0.443789
1105.24	0.722264
1106.87	0.269945
1108.51	0.484143
1110.14	0.224339
1111.78	0.479185
1113.41	0.130928
1115.05	-0.132113
1116.68	0.248278
1118.31	0.242337
1119.95	0.279829
1121.58	0.617893
1123.21	-0.199182
1124.85	0.611234
1126.48	0.459396
1128.11	0.607698
1129.74	0.0937624
1131.37	0.863188
1133	0.0294476
1134.63	0.371404
1136.26	-0.398621
1137.89	-0.293102
1139.52	0.024992
1141.15	0.42738
1142.78	0.572857
1144.41	-0.198809
1146.04	-0.0951347
1147.66	0.563334
1149.29	0.455178
1150.92	-0.504486
1152.55	0.0269699
1154.17	0.110805
1155.8	0.556061
1157.43	0.064784
1159.05	0.446156
1160.68	-0.256436
1162.3	-0.341282
1163.93	0.318857
1165.55	-0.0198698
1167.17	-0.146177
1168.8	0.470767
1170.42	0.257116
1172.05	0.148179
1173.67	0.207705
1175.29	0.202435
1176.91	-0.248462
1178.54	0.106424
1180.16	-0.321817
1181.78	-0.0718403
1183.4	-0.138725
1185.02	0.153715
1186.64	0.233871
1188.26	0.270334
1189.88	0.431511
1191.5	-0.0619688
1193.12	-0.36625
1194.74	-0.229483
1196.36	-0.03018
1197.97	-0.20755
1199.59	0.474397
1201.21	0.3212
1202.83	0.128796
1204.44	0.230992
1206.06	0.251501
1207.68	-0.164947
1209.29	0.169908
1210.91	-0.079957
1212.52	0.648831
1214.14	0.395654
1215.75	-0.171455
1217.37	0.134613
1218.98	0.356086
1220.59	-0.0665464
1222.21	0.880969
1223.82	-0.119866
1225.43	0.124447
1227.05	0.473174
1228.66	0.450454
1230.27	0.738987
1231.88	0.55299
1233.49	0.595467
1235.1	0.639023
1236.72	0.662973
1238.33	0.66716
1239.94	1.33366
1241.55	0.904444
1243.16	0.867817
1244.76	0.375281
1246.37	0.523274
1247.98	1.10494
1249.59	1.1272
1251.2	0.962983
1252.8	0.695566
1254.41	0.656339
1256.02	0.369832
1257.62	0.891121
1259.23	0.834264
1260.84	1.10936
1262.44	0.991657
1264.05	0.708171
1265.66	0.527757
1267.26	0.781905
1268.86	1.15975
1270.47	1.22576
1272.07	1.12493
1273.67	0.629281
1275.28	1.06568
1276.88	1.33525
1278.48	0.733886
1280.09	0.939978
1281.69	0.669593
1283.29	0.647786
1284.89	1.10208
1286.49	0.833308
1288.09	1.0823
1289.69	1.18737
1291.29	0.900276
1292.89	0.303262
1294.49	1.13121
1296.09	1.44135
1297.69	1.2337
1299.29	0.880341
1300.89	1.18584
1302.49	1.28373
1304.08	1.44232
1305.68	1.16819
1307.28	1.32544
1308.88	1.13333
1310.47	1.39247
1312.07	0.934895
1313.66	1.05155
1315.26	1.18929
1316.85	1.001
1318.45	1.03792
1320.04	1.38051
1321.64	0.540299
1323.23	1.4911
1324.83	0.893483
1326.42	0.377285
1328.01	1.01752
1329.61	1.33261
1331.2	0.980947
1332.79	1.01587
1334.38	1.25464
1335.97	1.1919
1337.56	1.33143
1339.16	0.946173
1340.75	0.600273
1342.34	1.07819
1343.93	0.950359
1345.52	1.94607
1347.11	0.874146
1348.7	0.607319
1350.29	0.923463
1351.87	0.981391
1353.46	1.0211
1355.05	1.16191
1356.64	0.463737
1358.22	0.904254
1359.81	1.08406
1361.4	0.703895
1362.98	0.901881
1364.57	0.919892
1366.16	0.798621
1367.74	0.379457
1369.33	0.519051
1370.91	0.818955
1372.5	0.483211
1374.08	0.7653
1375.67	0.0132847
1377.25	1.07211
1378.83	0.439132
1380.41	0.183421
1382	0.503616
1383.58	0.782751
1385.16	0.941527
1386.74	0.920935
1388.33	0.384184
1389.91	0.880629
1391.49	0.702841
1393.07	0.664712
1394.65	0.666612
1396.23	0.470076
1397.81	0.471285
1399.39	0.451839
1400.97	0.689067
1402.55	0.885939
1404.13	0.548405
1405.7	0.132566
1407.28	0.211936
1408.86	0.825422
1410.44	0.0760565
1412.01	0.61064
1413.59	0.532451
1415.17	0.354902
1416.74	0.531784
1418.32	0.767258
1419.89	0.608765
1421.47	0.530084
1423.04	0.826791
1424.62	0.475302
1426.19	0.872849
1427.77	0.483585
1429.34	0.881408
1430.91	0.766708
1432.49	0.572333
1434.06	0.416569
1435.63	0.889849
1437.2	1.18605
1438.78	0.932372
1440.35	1.36753
1441.92	1.19425
1443.49	1.15917
1445.06	1.55683
1446.63	0.59847
1448.2	1.33061
1449.77	1.08018
1451.34	1.45928
1452.91	1.721
1454.48	1.27503
1456.05	1.34039
1457.62	1.38555
1459.18	1.80351
1460.75	1.72788
1462.32	1.33575
1463.89	1.49302
1465.45	0.725365
1467.02	0.763606
1468.59	0.88063
1470.15	0.723554
1471.72	0.940293
1473.28	0.412551
1474.85	1.31717
1476.41	1.14352
1477.98	0.773965
1479.54	0.776891
1481.1	0.603325
1482.67	0.684494
1484.23	0.549995
1485.79	0.317291
1487.36	0.240747
1488.92	0.378534
1490.48	0.0255013
1492.04	0.00356197
1493.61	0.40961
1495.17	0.442598
1496.73	0.377139
1498.29	0.194881
1499.85	0.421654
1501.41	0.202282
1502.97	0.294658
1504.53	0.484471
1506.09	0.480598
1507.65	-0.0846214
1509.2	-0.0892744
1510.76	0.175295
1512.32	-0.255277
1513.88	-0.165411
1515.43	0.366451
1516.99	0.0719538
1518.55	0.200656
1520.1	0.92339
1521.66	0.496676
1523.22	0.586679
1524.77	1.11491
1526.33	0.477825
1527.88	-0.120293
1529.44	0.328569
1530.99	0.776134
1532.54	0.445476
1534.1	-0.394865
1535.65	0.678037
1537.21	0.880203
1538.76	0.346452
1540.31	0.681485
1541.86	0.356609
1543.42	0.314585
1544.97	0.610892
1546.52	0.64347
1548.07	0.713357
1549.62	0.595627
1551.17	0.384659
1552.72	0.847968
1554.27	1.0122
1555.82	1.02797
1557.37	0.989289
1558.92	1.02701
1560.47	0.898513
1562.02	1.23782
1563.56	1.07444
1565.11	0.986184
1566.66	0.935316
1568.21	0.380309
1569.75	0.776809
1571.3	0.986364
1572.85	1.27035
1574.39	1.57287
1575.94	0.886032
1577.49	1.15141
1579.03	1.26782
1580.57	1.3848
1582.12	0.923564
1583.66	1.17272
1585.21	1.47876
1586.75	1.59853
1588.3	0.802017
1589.84	1.12737
1591.38	1.41516
1592.92	0.822644
1594.47	1.35332
1596.01	0.985018
1597.55	0.897951
1599.09	0.886378
1600.63	1.41939
1602.17	1.57798
1603.71	0.966814
1605.25	1.03081
1606.79	1.39436
1608.33	1.38044
1609.87	1.15772
1611.41	1.74095
1612.95	0.875857
1614.49	1.1179
1616.03	1.17168
1617.57	0.907116
1619.1	1.13093
1620.64	0.925108
1622.18	1.16995
1623.72	0.966123
1625.25	0.874702
1626.79	1.17569
1628.32	1.25087
1629.86	0.988167
1631.39	1.50976
1632.93	0.853648
1634.46	1.00123
1636	1.18665
1637.53	0.5521
1639.07	1.14902
1640.6	1.01871
1642.13	1.35372
1643.67	1.18471
1645.2	1.27535
1646.73	1.36504
1648.26	1.28709
1649.8	1.39524
1651.33	1.67111
1652.86	1.26154
1654.39	1.20558
1655.92	1.07609
1657.45	1.35426
1658.98	1.11295
1660.51	1.62974
1662.04	1.44161
1663.57	1.56696
1665.1	1.24829
1666.63	1.04115
1668.16	1.42539
1669.68	1.44182
1671.21	1.49642
1672.74	0.723078
1674.27	1.35011
1675.79	0.835176
1677.32	1.46094
1678.85	1.27582
1680.37	0.814151
1681.9	1.17921
1683.42	1.04771
1684.95	0.93478
1686.47	1.07902
1688	0.2704
1689.52	0.397233
1691.05	0.908633
1692.57	0.559462
1694.09	0.612989
1695.62	0.574903
1697.14	0.938616
1698.66	0.187675
1700.18	0.441029
1701.71	0.16472
1703.23	0.289268
1704.75	0.504209
1706.27	0.299927
1707.79	0.132097
1709.31	0.345914
1710.83	0.287194
1712.35	0.428174
1713.87	0.188577
1715.39	0.528705
1716.91	0.633075
1718.43	0.701003
1719.95	0.353415
1721.47	0.349351
1722.99	0.129394
1724.5	0.433048
1726.02	0.287241
1727.54	0.322666
1729.06	0.0889578
1730.57	-0.089098
1732.09	0.0731273
1733.61	0.092227
1735.12	0.239982
1736.64	0.777742
1738.15	0.227779
1739.67	0.139064
1741.18	0.0276079
1742.7	0.214794
1744.21	0.180532
1745.72	0.520589
1747.24	0.0244656
1748.75	0.265637
1750.26	0.299195
1751.77	0.626552
1753.29	-0.0963168
1754.8	0.251729
1756.31	0.232822
1757.82	0.140641
1759.33	0.277079
1760.84	0.104167
1762.36	0.133859
1763.87	0.123682
1765.38	0.15879
1766.89	0.329924
1768.4	-0.0166683
1769.91	-0.0470166
1771.41	0.298646
1772.92	0.314848
1774.43	0.194441
1775.94	-0.0701594
1777.45	0.154283
1778.95	-0.00543261
1780.46	-0.0948725
1781.97	0.0612178
1783.48	-0.0689559
1784.98	0.239285
1786.49	0.542121
1787.99	0.33887
1789.5	0.438827
1791.01	0.140707
1792.51	0.0993905
1794.01	0.0390244
1795.52	0.0300088
1797.02	-0.0170112
1798.53	-0.036953
1800.03	-0.131589
1801.53	-0.178537
1803.04	-0.172882
1804.54	-0.0350742
1806.04	0.237079
1807.54	0.127635
1809.05	0.106714
1810.55	0.0936913
1812.05	0.410267
1813.55	0.142255
1815.05	0.0980406
1816.55	0.319669
1818.05	0.207726
1819.55	0.13599
1821.05	0.523458
1822.55	0.0158577
1824.05	0.302904
1825.55	0.35709
1827.05	0.438206
1828.55	0.321706
1830.04	0.333118
1831.54	0.054553
1833.04	-0.159499
1834.54	0.383319
1836.03	0.299705
1837.53	0.486202
1839.03	-0.0377526
1840.52	0.351518
1842.02	0.331623
1843.51	0.132136
1845.01	0.0203748
1846.5	0.52844
1848	0.168121
1849.49	0.448231
1850.99	0.17202
1852.48	0.164769
1853.97	0.213439
1855.47	0.287851
1856.96	0.347997
1858.45	0.38098
1859.94	0.212799
1861.44	0.208909
1862.93	0.222112
1864.42	0.183496
1865.91	0.236116
1867.4	0.0699706
1868.89	0.161572
1870.38	0.311851
1871.87	0.360639
1873.36	0.26274
1874.85	0.309493
1876.34	0.363027
1877.83	0.591652
1879.32	0.215002
1880.81	0.139153
1882.3	0.454789
1882.57	0.530242
1884.07	0.372113
1885.56	0.492216
1887.06	0.489534
1888.55	0.399393
1890.04	0.39652
1891.54	0.49886
1893.03	0.150495
1894.52	0.586111
1896.02	-0.0375609
1897.51	0.191408
1899	0.298584
1900.49	0.47449
1901.98	0.248879
1903.47	0.33488
1904.96	0.297911
1906.45	0.486181
1907.94	0.483231
1909.43	-0.161389
1910.92	0.479232
1912.41	0.30495
1913.9	0.443396
1915.39	0.235044
1916.88	0.650603
1918.37	0.337536
1919.85	0.336148
1921.34	0.438616
1922.83	-0.0819778
1924.32	0.125513
1925.8	0.281966
1927.29	0.612438
1928.78	0.441403
1930.26	0.201003
1931.75	0.0984068
1933.23	0.185068
1934.72	0.218271
1936.2	0.509548
1937.69	0.298064
1939.17	0.570263
1940.66	0.0653706
1942.14	0.372882
1943.63	0.422248
1945.11	0.0412116
1946.59	0.333024
1948.07	-0.047658
1949.56	-0.0497041
1951.04	0.171262
1952.52	0.253548
1954	0.0601301
1955.48	-0.0127983
1956.96	0.515716
1958.45	0.374863
1959.93	-0.0739865
1961.41	0.283904
1962.89	0.230297
1964.37	0.262228
1965.85	0.225194
1967.32	0.307416
1968.8	0.406084
1970.28	0.179363
1971.76	0.516373
1973.24	0.665103
1974.72	0.574932
1976.19	0.485049
1977.67	0.105885
1979.15	0.0506988
1980.63	0.403784
1982.1	0.36529
1983.58	0.394526
1985.05	0.372502
1986.53	0.112864
1988	0.260336
1989.48	0.272381
1990.95	0.132689
1992.43	-0.022953
1993.9	0.312627
1995.38	0.276849
1996.85	0.410393
1998.32	0.391809
1999.8	0.558551
2001.27	0.404008
2002.74	0.114248
2004.22	0.31354
2005.69	0.159096
2007.16	0.123311
2008.63	0.307244
2010.1	0.121442
2011.57	0.0202947
2013.04	0.222162
2014.51	0.188003
2015.98	0.254143
2017.45	0.201744
2018.92	0.165503
2020.39	0.196049
2021.86	0.411174
2023.33	0.173188
2024.8	0.12064
2026.27	-0.0315204
2027.74	0.220077
2029.2	0.405828
2030.67	0.542442
2032.14	0.428239
2033.61	0.448667
2035.07	0.16679
2036.54	0.50596
2038.01	0.542396
2039.47	0.0742974
2040.94	0.295189
2042.4	0.314738
2043.87	0.486328
2045.33	0.591527
2046.8	0.29342
2048.26	0.551142
2049.72	0.286347
2051.19	0.256492
2052.65	0.427671
2054.12	0.394946
2055.58	0.0403476
2057.04	0.392803
2058.5	0.356781
2059.97	0.590165
2061.43	0.436483
2062.89	0.334103
2064.35	0.569221
2065.81	0.451753
2067.27	0.13306
2068.73	0.0672674
2070.19	0.35521
2071.65	0.239223
2073.11	0.62821
2074.57	0.461351
2076.03	0.664661
2077.49	0.362452
2078.95	0.194623
2080.41	-0.00724602
2081.87	0.49759
2083.32	0.345201
2084.78	0.25957
2086.24	0.526628
2087.7	0.809747
2089.15	0.251958
2090.61	0.90393
2092.07	0.447146
2093.52	0.57803
2094.98	0.490532
2096.43	0.771414
2097.89	0.381413
2099.34	0.677603
2100.8	0.270739
2102.25	0.265729
2103.71	0.278128
2105.16	0.108004
2106.61	0.422965
2108.07	0.471741
2109.52	0.904275
2110.97	0.869319
2112.43	0.633252
2113.88	0.262743
2115.33	0.773295
2116.78	0.218296
2118.23	0.943488
2119.68	0.540115
2121.13	0.653157
2122.59	0.867287
2124.04	0.585128
2125.49	0.751253
2126.94	0.386555
2128.39	0.651009
2129.83	0.649001
2131.28	0.993686
2132.73	0.757975
2134.18	0.539079
2135.63	0.899797
2137.08	0.864838
2138.53	0.947205
2139.97	0.816383
2141.42	1.03408
2142.87	1.10412
2144.31	1.22441
2145.76	0.997353
2147.21	1.00163
2148.65	1.40286
2150.1	1.2071
2151.54	1.35832
2152.99	1.5418
2154.43	1.14462
2155.88	1.02874
2157.32	0.995784
2158.77	0.980042
2160.21	1.3962
2161.65	1.15127
2163.1	0.974097
2164.54	1.56121
2165.98	1.0209
2167.43	1.67596
2168.87	1.08402
2170.31	1.62087
2171.75	1.35759
2173.19	1.00932
2174.64	1.34188
2176.07	1.52416
2177.52	1.44055
2178.96	1.25791
2180.4	1.19254
2181.84	1.51037
2183.28	1.14699
2184.72	1.48231
2186.15	1.28546
2187.59	1.22167
2189.03	1.7071
2190.47	1.66004
2191.91	1.72924
2193.35	1.36484
2194.78	0.816073
2196.22	1.14809
2197.66	1.06218
2199.09	1.10786
2200.53	0.886754
2201.97	1.08091
2203.4	0.777686
2204.84	0.940042
2206.27	0.771671
2207.71	1.11744
2209.14	0.70101
2210.58	1.11184
2212.01	1.19048
2213.45	0.458455
2214.88	1.14782
2216.31	0.829937
2217.75	0.991847
2219.18	0.890855
2220.61	1.005
2222.05	0.459927
2223.48	0.672448
2224.91	0.751849
2226.34	0.566395
2227.78	0.593546
2229.21	0.63598
2230.64	0.530027
2232.07	1.07958
2233.5	0.744309
2234.93	0.704726
2236.36	0.682595
2237.79	0.645551
2239.22	0.267556
2240.65	0.217742
2242.08	0.218348
2243.5	0.301503
2244.93	0.613303
2246.36	0.614616
2247.79	0.418855
2249.22	0.302898
2250.64	0.52733
2252.07	0.603443
2253.5	0.79255
2254.92	0.429229
2256.35	0.343728
2257.78	0.633529
2259.2	0.211792
2260.63	0.279236
2262.05	0.478581
2263.48	0.43583
2264.9	0.783287
2266.33	-0.0562043
2267.75	0.469336
2269.18	0.245909
2270.6	-0.124822
2272.02	0.0900488
2273.45	0.14202
2274.87	0.308118
2276.29	0.441885
2277.71	-0.173852
2279.14	0.155687
2280.56	0.354897
2281.98	0.325753
2283.4	0.280211
2284.82	0.397876
2286.24	0.319912
2287.66	0.225889
2289.08	0.344511
2290.5	-0.0266509
2291.92	-0.021904
2293.34	0.0156565
2294.76	0.51136
2296.18	0.614571
2297.6	0.144671
2299.02	0.264201
2300.44	0.220094
2301.86	-0.0861821
2303.27	0.148876
2304.69	-0.058897
2306.11	0.373567
2307.53	0.214633
2308.94	0.235932
2310.36	0.075871
2311.78	-0.216206
2313.19	0.215509
2314.61	0.252814
2316.02	0.241365
2317.44	0.510643
2318.85	0.137675
2320.27	0.225914
2321.68	-0.0332112
2323.1	0.366142
2324.51	-0.0780702
2325.92	0.152508
2327.34	0.48048
2328.75	0.659151
2330.16	0.393099
2331.58	0.309183
2332.99	-0.168714
2334.4	0.177027
2335.81	0.144443
2337.23	-0.0529723
2338.64	-0.168847
2340.05	0.12526
2341.46	0.0405793
2342.87	0.136118
2344.28	0.100323
2345.69	0.0648079
2347.1	-0.134213
2348.51	-0.152915
2349.92	0.12254
2351.33	0.282541
2352.74	-0.211818
2354.15	-0.200215
2355.55	-0.221769
2356.96	0.114671
2358.37	0.222666
2359.78	-0.0593829
2361.19	0.0487552
2362.59	0.189083
2364	-0.221615
2365.41	-0.0652561
2366.81	-0.167636
2368.22	-0.156301
2369.62	0.0977964
2371.03	-0.0665078
2372.44	0.189332
2373.84	-0.150059
2375.24	-0.118654
2376.65	-0.312832
2378.05	0.408871
2379.46	0.00357008
2380.86	0.0791688
2382.26	-0.00687599
2383.67	0.018661
2385.07	-0.227943
2386.47	0.117481
2387.88	0.415004
2389.28	-0.275539
2390.68	0.167186
2392.08	0.1804
2393.48	-0.123796
2394.89	0.0819054
2396.29	0.129035
2397.69	0.0336208
2399.09	0.0817332
2400.49	-0.266916
2401.89	0.385457
2403.29	-0.280464
2404.69	0.101497
2406.09	0.260324
2407.48	0.0691938
2408.88	0.0520487
2410.28	-0.0445867
2411.68	0.128397
2413.08	-0.141504
2414.48	0.302247
2415.87	0.208841
2417.27	0.25903
2418.67	0.373321
2420.06	-0.00300884
2421.46	0.190672
2422.86	0.178163
2424.25	0.133742
2425.65	-0.259249
2427.04	0.362411
2428.44	-0.172218
2429.83	0.59406
2431.23	0.0604682
2432.62	0.304369
2434.02	-0.0396008
2435.41	0.393716
2436.81	0.508182
2438.2	-0.109502
2439.59	0.0820642
2440.99	0.33632
2442.38	0.224856
2443.77	0.144983
2445.16	-0.268051
2446.56	-0.157662
2447.95	-0.110864
2449.34	-0.0165925
2450.73	-0.0963788
2452.12	-0.223148
2453.51	0.299524
2454.9	0.0791359
2456.29	0.0650172
2457.68	0.414964
2459.07	0.100421
2460.46	0.0701303
2461.85	0.00757122
2463.24	0.197295
2464.63	-0.00856876
2466.02	0.0381761
2467.4	0.11638
2468.79	-0.0895295
2470.18	-0.0903945
2471.57	0.160569
2472.95	0.0641246
2474.34	-0.0643039
2475.73	0.152996
2477.12	0.275352
2478.5	0.460294
2479.89	-0.155178
2481.27	-0.0326195
2482.66	-0.160982
2484.04	-0.148629
2485.43	0.0193925
2486.81	0.170532
2488.2	0.148786
2489.58	-0.247509
2490.97	0.290912
2492.35	0.284385
2493.73	0.139049
2495.12	0.134731
2496.5	0.177953
2497.88	0.252787
2499.27	-0.136609
2500.65	0.263073
2502.03	0.0896711
2503.41	-0.115108
2504.79	0.219652
2506.17	0.506972
2507.56	-0.00682402
2508.94	0.0801821
2510.32	-0.26263
2511.7	0.0401163
2513.08	-0.178223
2514.46	0.0333323
2515.84	0.0616212
2517.22	-0.0930543
2518.59	-0.00251055
2519.97	0.179755
2521.35	0.0408845
2522.73	0.0237408
2524.11	-0.0245643
2525.49	0.018075
2526.86	-0.0766006
2528.24	0.103096
2529.62	0.0401583
2530.99	0.115369
2532.37	-0.0208125
2533.75	0.23916
2535.12	0.0439014
2536.5	0.0309124
2537.88	-0.256056
2539.25	-0.285489
2540.63	0.398038
2542	0.200541
2543.38	-0.0117426
2544.75	-0.25356
2546.12	0.0213675
2547.5	-0.00610352
2548.87	0.36155
2550.24	0.0010066
2551.62	0.26218
2552.99	-0.114781
2554.36	0.144821
2555.74	0.0546708
2557.11	0.100634
2558.48	-0.490369
2559.85	0.359274
2561.22	0.0874314
2562.59	0.24052
2563.96	0.13645
2565.34	0.623742
2566.71	0.0807576
2568.08	0.12886
2569.45	0.222441
2570.82	-0.0477257
2572.18	0.318731
2573.55	0.215391
2574.92	0.081789
2576.29	0.130131
2577.66	-0.17032
2579.03	0.196191
2580.4	0.0772114
2581.77	0.640224
2583.13	0.308326
2584.5	0.112739
2585.87	-0.0676861
2587.23	0.358291
2588.6	0.2236
2589.97	-0.214074
2591.33	0.0755734
2592.7	0.319323
2594.06	-0.210245
2595.43	0.334844
2596.79	0.0158863
2598.16	0.0899415
2599.52	0.193859
2600.89	-0.18576
2602.25	0.311344
2603.62	0.2802
2604.98	-0.157876
2606.34	0.309564
2607.71	0.128004
2609.07	0.0212636
2610.43	0.124532
2611.79	0.271731
2613.16	-0.0483842
2614.52	0.082129
2615.88	0.257195
2617.24	0.192274
2618.6	0.142957
2619.96	0.243992
2621.32	-0.0283232
2622.68	0.25301
2624.04	0.0115337
2625.4	-0.169983
2626.76	-0.0830445
2628.12	-0.0113907
2629.48	0.030138
2630.84	-0.151723
2632.2	-0.214455
2633.56	0.019948
2634.92	0.13522
2636.28	0.0278378
2637.63	0.261425
2638.99	0.0801215
2640.35	0.402238
2641.71	0.0144935
2643.06	0.129804
2644.42	0.0679388
2645.77	-0.0824227
2647.13	0.032445
2648.49	0.0729332
2649.84	-0.0933189
2651.2	0.0636258
2652.55	0.26407
2653.91	0.229576
2655.26	-0.0240808
2656.62	0.0604157
2657.97	0.204262
2659.33	0.231636
2660.68	0.0399857
2662.03	-0.122375
2663.39	-0.0221348
2664.74	-0.258365
2666.09	0.0593872
2667.44	0.0848079
2668.8	0.270297
2670.15	0.353872
2671.5	-0.0565634
2672.85	0.275078
2674.2	0.0550165
2675.55	0.0678773
2676.91	0.226266
2678.26	-0.0210133
2679.61	0.196509
2680.96	-0.0926237
2682.31	-0.192315
2683.66	-0.0736008
2685	-0.113647
2686.35	0.310951
2687.7	0.0679803
2689.05	-0.190581
2690.4	0.30441
2691.75	-0.0295048
2693.1	-0.0742378
2694.44	0.0688314
2695.79	-0.281114
2697.14	-0.036324
2698.49	-0.0513611
2699.83	0.238995
2701.18	-0.0484762
2702.52	-0.0596766
2703.87	-0.272955
2705.22	0.41282
2706.56	0.214498
2707.91	-0.216408
2709.25	-0.0092454
2710.6	-0.0636201
2711.94	0.186823
2713.29	0.0885534
2714.63	0.0919247
2715.97	-0.0501604
2717.32	0.0257168
2718.66	0.261461
2720.01	-0.28875
2721.35	-0.0390725
2722.69	0.32673
2724.03	0.328302
2725.38	-0.00526094
2726.72	-0.339108
2728.06	-0.0764475
2729.4	-0.148724
2730.74	0.535522
2732.08	0.317563
2733.42	0.0706334
2734.76	0.114802
2736.1	0.100943
2737.44	0.0726418
2738.78	0.0588622
2740.12	0.350261
2741.46	0.248619
2742.8	0.131946
2744.14	0.218227
2745.48	-0.0737581
2746.82	-0.00281763
2748.16	0.198554
2749.49	0.0660844
2750.83	0.0644093
2752.17	0.207908
2753.51	-0.387631
2754.84	0.103942
2756.18	0.059422
2757.52	0.23225
2758.85	0.130153
2760.19	0.100777
2761.53	-0.0584407
2762.86	0.0721364
2764.2	0.217405
2765.53	-0.100352
2766.87	0.00111151
2768.2	-0.100687
2769.54	-0.290181
2770.87	0.126332
2772.2	0.237986
2773.54	0.10334
2774.87	-0.0315027
2776.2	-0.0509048
2777.54	0.347353
2778.87	0.314017
2780.2	0.0656095
2781.53	0.219878
2782.87	0.187446
2784.2	0.298419
2785.53	0.265907
2786.86	0.276567
2788.19	-0.11317
2789.52	0.141943
2790.85	0.268838
2792.18	-0.247132
2793.51	-0.262189
2794.84	-0.105719
2796.17	0.021832
2797.5	-0.0939474
2798.83	0.0326428
2800.16	0.158789
2801.49	0.370189
2802.82	0.139228
2804.15	-0.134468
2805.47	-0.137611
2806.8	-0.212389
2808.13	0.0680127
2809.46	0.233974
2810.78	0.144102
2812.11	-0.0160971
2813.44	0.108458
2814.76	-0.0211411
2816.09	0.048902
2817.42	-0.0786328
2818.74	-0.0214643
2820.07	-0.0351729
2821.39	-0.261828
2822.72	0.00702906
2824.04	-0.178065
2825.37	0.0615973
2826.69	0.0746031
2828.02	-0.0818877
2829.34	0.158488
2830.66	-0.0679569
2831.99	0.0171919
2833.31	0.201364
2834.63	0.102175
2835.96	-0.0256858
2837.28	-0.0548725
2838.6	0.467297
2839.92	0.211238
2841.24	0.478508
2842.57	0.0675073
2843.89	0.165925
2845.21	0.589909
2846.53	0.689312
2847.85	0.520465
2849.17	0.563615
2850.49	0.762009
2851.81	0.889337
2853.13	0.959707
2854.45	0.930839
2855.77	0.661646
2857.09	0.816318
2858.41	1.0416
2859.72	0.77252
2861.04	0.461027
2862.36	0.996436
2863.68	0.96677
2865	1.16268
2866.31	1.33025
2867.63	1.2723
2868.95	0.805823
2870.26	1.36894
2871.58	1.46684
2872.9	1.3249
2874.21	1.25289
2875.53	1.72943
2876.84	1.65566
2878.16	1.62355
2879.47	1.31
2880.79	1.36248
2882.1	1.61223
2883.42	1.66595
2884.73	1.42554
2886.05	1.48046
2887.36	1.39505
2888.67	1.68819
2889.99	1.71404
2891.3	1.44477
2892.61	1.87603
2893.92	1.71842
2895.24	1.77128
2896.55	1.90871
2897.86	2.03287
2899.17	1.78003
2900.48	1.90557
2901.79	1.70969
2903.11	1.76577
2904.42	2.05972
2905.73	2.01819
2907.04	1.9631
2908.35	2.04849
2909.66	1.95265
2910.97	2.73886
2912.27	2.32156
2913.58	2.40752
2914.89	2.35243
2916.2	2.60401
2917.51	2.85432
2918.82	2.57207
2920.13	3.01718
2921.43	3.08504
2922.74	2.94416
2924.05	3.09793
2925.35	2.81925
2926.66	3.21199
2927.97	3.40908
2929.27	3.522
2930.58	2.94945
2931.89	3.45299
2933.19	3.46704
2934.5	3.70469
2935.8	3.14579
2937.11	3.35571
2938.41	3.49588
2939.72	3.3987
2941.02	3.24605
2942.32	3.10804
2943.63	3.02683
2944.93	3.01655
2946.24	2.99318
2947.54	2.48054
2948.84	2.40121
2950.14	3.07701
2951.45	2.60345
2952.75	3.09457
2954.05	2.35245
2955.35	2.49217
2956.65	2.33864
2957.95	2.20066
2959.26	2.3867
2960.56	2.19676
2961.86	2.23242
2963.16	2.05823
2964.46	2.27646
2965.76	2.19887
2967.06	2.00751
2968.36	2.44766
2969.66	2.08592
2970.96	2.11776
2972.25	2.07951
2973.55	1.71782
2974.85	2.00345
2976.15	1.65512
2977.45	1.47469
2978.74	1.53234
2980.04	1.56051
2981.34	1.51731
2982.64	1.26277
2983.93	1.26176
2985.23	1.33188
2986.52	1.2626
2987.82	1.50359
2989.12	1.28164
2990.41	1.36904
2991.71	1.18901
2993	0.937911
2994.3	0.306558
2995.59	0.868628
2996.89	0.418877
2998.18	0.50263
2999.48	0.67066
3000.77	0.824942
3002.06	0.657196
3003.36	0.48988
3004.65	0.448812
3005.94	0.575606
3007.23	0.32388
3008.53	0.603393
3009.82	0.476408
3011.11	0.558585
3012.4	0.165633
3013.69	0.275507
3014.99	0.19039
3016.28	0.23131
3017.57	0.147464
3018.86	0.203254
3020.15	0.0782495
3021.44	0.550672
3022.73	-0.144846
3024.02	0.0758533
3025.31	-0.0925822
3026.6	-0.274689
3027.89	0.360286
3029.18	0.372927
3030.46	0.16571
3031.75	-0.0124884
3033.04	-0.0378814
3034.33	0.00598764
3035.62	0.339088
3036.9	-0.0874667
3038.19	0.256647
3039.48	0.447244
3040.76	0.14136
3042.05	0.206139
3043.34	0.161084
3044.62	0.253731
3045.91	0.333831
3047.19	0.237981
3048.48	0.185122
3049.77	0.215897
3051.05	0.234273
3052.34	0.307887
3053.62	0.12226
3054.9	0.41364
3056.19	0.240361
3057.47	0.325359
3058.76	0.164421
3060.04	0.316644
3061.32	0.0607905
3062.61	0.309217
3063.89	0.34104
3065.17	0.346929
3066.45	0.177221
3067.74	0.334608
3069.02	0.329177
3070.3	0.350742
3071.58	0.113203
3072.86	0.228326
3074.14	-0.13336
3075.42	0.224697
3076.7	-0.151139
3077.99	0.0845408
3079.26	-0.276094
3080.54	0.300614
3081.82	0.37658
3083.1	0.222961
3084.38	-0.0929708
3085.66	0.066051
3086.94	0.33338
3088.22	-0.0513425
3089.5	-0.192237
3090.78	0.0329723
3092.05	0.0545187
3093.33	-0.195063
3094.61	0.0981483
3095.89	0.0118561
3097.16	-0.0878658
3098.44	-0.011374
3099.72	-0.0162916
3100.99	0.11422
3102.27	-0.107353
3103.54	-0.0713229
3104.82	0.357646
3106.1	-0.0655036
3107.37	0.188801
3108.65	-0.205639
3109.92	-0.274479
3111.2	-0.0988655
3112.47	0.185829
3113.74	-0.0573668
3115.02	0.22796
3116.29	0.052073
3117.56	0.17385
3118.84	0.362644
3120.11	0.0216589
3121.38	0.0597591
3122.66	-0.0245538
3123.93	0.243311
3125.2	0.0643191
3126.47	0.170088
3127.74	0.27626
3129.01	0.261078
3130.29	-0.0647364
3131.56	0.150436
3132.83	0.338372
3134.1	0.431347
3135.37	0.240385
3136.64	0.386508
3137.91	0.289407
3139.18	0.246078
3140.45	0.619982
3141.72	0.294088
3142.99	0.251178
3144.26	0.396731
3145.52	0.542597
3146.79	0.487756
3148.06	0.179055
3149.33	0.339842
