200.407	0.0247946
202.221	0.0429602
204.035	0.0621567
205.849	0.203817
207.665	-0.359358
209.478	0.00097847
211.291	0.432924
213.104	-0.471761
214.916	0.176218
216.73	0.313783
218.541	0.426957
220.352	0.129074
222.163	0.171027
223.973	0.382984
225.785	0.450309
227.595	-0.207052
229.404	0.681221
231.213	0.192498
233.022	-0.127166
234.83	0.108348
236.638	0.0795889
238.448	0.438284
240.255	0.027833
242.062	0.583658
243.868	0.224487
245.675	-0.376366
247.48	1.29051
249.286	0.589314
251.091	-0.0664206
252.896	0.458416
254.702	0.402272
256.506	0.00821304
258.31	0.265878
260.113	-0.125708
261.916	-0.130095
263.719	0.252382
265.521	0.298567
267.323	-0.136914
269.125	-0.331785
270.926	0.00300598
272.727	0.0716658
274.527	0.0426788
276.328	0.0123024
278.127	0.341829
279.927	0.380284
281.726	0.152121
283.525	0.0669613
285.323	-0.0433254
287.121	0.517955
288.919	-0.120801
290.716	0.128604
292.513	0.306871
294.31	0.534081
296.104	0.140722
297.9	0.585147
299.696	0.360757
301.491	0.518517
303.286	0.293415
305.081	0.998137
306.875	0.48482
308.669	0.591615
310.463	0.555804
312.256	-0.0267258
314.047	0.67828
315.839	0.479973
317.631	0.71191
319.423	0.730957
321.215	0.655752
323.006	0.915045
324.794	0.769377
326.585	1.17282
328.375	0.883699
330.165	0.928293
331.954	0.660918
333.741	0.726716
335.53	0.790628
337.318	0.852447
339.106	0.864441
340.894	0.827126
342.679	1.00417
344.466	0.942049
346.253	0.522136
348.039	0.867198
349.823	0.329247
351.608	0.483731
353.393	0.613792
355.176	0.0272007
356.961	0.679809
358.745	0.925424
360.529	1.14583
362.31	0.460736
364.093	0.560675
365.876	0.612267
367.657	1.09028
369.439	1.18716
371.221	0.359222
373	0.123951
374.781	0.716005
376.56	0.763795
378.34	0.95341
380.12	0.86077
381.898	0.0867472
383.677	0.843882
385.456	1.01353
387.233	1.06666
389.011	0.956368
390.787	0.894003
392.565	0.43318
394.34	0.677447
396.117	0.96903
397.894	0.485689
399.668	0.777201
401.444	0.880443
403.217	1.21796
404.993	0.850164
406.766	0.575669
408.54	0.535488
410.312	0.0490103
412.086	0.055563
413.858	-0.500738
415.631	-0.0474691
417.402	0.946101
419.174	0.884397
420.944	0.705547
422.716	0.150849
424.486	0.698793
426.257	0.0956221
428.025	0.548118
429.794	0.17854
431.564	0.560034
433.332	0.519267
435.101	0.29104
436.868	0.579106
438.637	0.584938
440.403	0.16712
442.169	0.428051
443.937	0.124207
445.703	0.381368
447.468	0.28594
449.234	0.283763
450.999	0.49191
452.765	1.21353
454.528	0.208103
456.292	0.0899105
458.057	0.344378
459.819	0.575202
461.582	0.969027
463.344	0.294625
465.107	0.993686
466.868	0.440455
468.629	0.168317
470.392	0.455709
472.152	1.37226
473.912	0.985387
475.672	0.922599
477.433	1.11401
479.192	0.930946
480.951	1.51558
482.709	0.423306
484.469	1.56799
486.226	1.61994
487.984	0.974826
489.74	1.1472
491.499	1.04072
493.255	0.584202
495.011	0.898772
496.767	0.909543
498.522	1.27151
500.277	0.883276
502.033	0.540725
503.788	0.971931
505.541	0.83861
507.295	1.08012
509.048	1.08518
510.801	0.900489
512.553	1.37316
514.308	1.04437
516.06	1.27898
517.811	0.877342
519.562	1.01573
521.313	0.683352
523.063	1.07886
524.814	0.746107
526.563	0.812476
528.313	1.69943
530.062	1.31988
531.811	1.50248
533.559	1.47343
535.308	0.811747
537.055	0.149844
538.803	0.865431
540.55	0.459017
542.297	0.798183
544.043	0.624333
545.789	0.288198
547.535	0.60285
549.281	0.893792
551.026	0.628511
552.771	0.641542
554.515	0.83956
556.259	0.460319
558.003	0.358886
559.747	0.396294
561.49	0.526188
563.233	0.610367
564.975	0.442094
566.717	0.389451
568.459	0.42938
570.2	0.676712
571.942	0.787428
573.68	0.142595
575.421	0.187488
577.161	0.669799
578.901	0.717459
580.64	0.44433
582.379	-0.242585
584.118	0.586724
585.855	1.00186
587.593	0.334908
589.331	0.379857
591.068	0.90715
592.805	0.28357
594.54	0.327063
596.277	0.439594
598.013	0.483072
599.749	0.319189
601.484	0.47667
603.217	0.0580502
604.952	-0.338552
606.687	-0.368221
608.421	0.267432
610.153	0.420228
611.886	-0.0231667
613.619	-0.304987
615.35	0.514082
617.083	0.622476
618.815	0.20361
620.547	0.448033
622.276	0.325085
624.008	0.407258
625.738	0.854774
627.467	0.5949
629.197	0.382625
630.927	0.240946
632.655	0.35205
634.384	0.509776
636.113	0.233605
637.839	0.846235
639.568	0.703176
641.293	0.0558052
643.021	0.409997
644.748	0.193218
646.473	0.136279
648.2	0.808348
649.924	0.187288
651.65	0.0922956
653.376	0.34148
655.099	0.912286
656.824	-0.13043
658.546	0.0336084
660.271	-0.0304804
661.993	0.657681
663.716	0.407938
665.438	-0.02707
667.161	0.267806
668.881	0.65359
670.604	0.719784
672.324	0.581764
674.045	0.972441
675.765	0.448875
677.486	0.269603
679.204	0.916939
680.925	1.01297
682.643	0.0952587
684.361	0.440627
686.08	0.162828
687.797	0.689665
689.516	0.731956
691.232	-0.193882
692.95	0.400047
694.666	0.325331
696.382	0.180723
698.099	0.196328
699.813	0.279911
701.528	0.43142
703.244	0.466994
704.958	0.50191
706.673	0.352699
708.387	0.753736
710.099	0.626774
711.814	0.843092
713.526	0.738531
715.238	1.36526
716.949	0.757859
718.663	0.83596
720.374	0.822919
722.084	0.195188
723.796	0.660694
725.506	0.647917
727.216	0.70305
728.925	0.712331
730.636	0.789194
732.345	0.639098
734.053	0.851121
735.761	1.10796
737.471	0.777476
739.178	0.583573
740.885	0.819116
742.592	0.672399
744.298	1.11237
746.006	1.68819
747.712	1.23005
749.417	1.76305
751.122	1.44247
752.827	1.12309
754.532	1.11981
756.236	1.16287
757.942	1.07225
759.645	1.16307
761.348	1.54812
763.051	2.29527
764.753	1.89175
766.456	1.57701
768.158	1.96101
769.859	1.77794
771.56	1.95469
773.261	2.22053
774.964	2.16927
776.664	2.25417
778.364	1.84285
780.064	1.7721
781.763	1.79287
783.462	1.94962
785.16	1.44901
786.859	1.82905
788.557	1.16505
790.255	1.51657
791.952	1.75213
793.649	0.969645
795.346	1.00046
797.042	1.16718
798.738	1.08732
800.434	2.15704
802.127	1.31472
803.823	1.66567
805.517	1.76894
807.212	1.44446
808.906	1.20911
810.6	1.44429
812.293	1.20737
813.987	0.970318
815.68	1.20356
817.372	1.16794
819.064	1.17714
820.754	1.11948
822.446	1.55311
824.137	1.47395
825.828	2.17606
827.519	1.03072
829.209	1.71453
830.897	1.44336
832.587	2.17719
834.276	1.21961
835.966	1.46631
837.654	1.78013
839.341	1.73599
841.029	1.37767
842.717	1.35305
844.404	1.14919
846.091	1.54927
847.776	1.90645
849.463	2.17676
851.149	2.24833
852.833	2.18744
854.519	1.45424
856.204	2.06706
857.889	1.93815
859.572	1.28992
861.256	1.06693
862.94	1.45051
864.622	1.4952
866.305	0.862773
867.988	1.15394
869.669	1.24186
871.351	1.23929
873.033	1.12373
874.713	0.173215
876.395	0.756986
878.074	0.708982
879.755	0.706027
881.435	1.19942
883.114	0.540901
884.794	0.716742
886.471	0.552824
888.15	1.42552
889.829	1.01064
891.506	0.955513
893.184	0.809193
894.861	1.06712
896.538	0.739134
898.214	0.815165
899.891	0.441568
901.566	1.00918
903.242	0.836449
904.916	0.976866
906.592	0.626038
908.266	0.722495
909.941	0.574494
911.614	0.716797
913.288	0.503803
914.961	1.17972
916.635	0.656495
918.306	1.72992
919.979	1.05221
921.651	0.88504
923.321	0.564389
924.994	0.643181
926.664	1.05466
928.336	1.13623
930.005	1.3513
931.674	1.01536
933.345	1.49599
935.014	1.62375
936.682	1.00201
938.352	1.13094
940.019	1.04041
941.687	1.14949
943.356	0.928316
945.022	1.10422
946.689	1.16884
948.357	0.547545
950.022	1.02822
951.688	0.955977
953.355	0.971997
955.02	0.812947
956.684	0.590147
958.348	0.700922
960.014	0.858404
961.678	0.796627
963.341	0.823134
965.004	0.339559
966.669	0.428567
968.331	1.02413
969.993	0.998295
971.655	0.551385
973.316	0.63575
974.979	0.367502
976.64	0.852729
978.3	0.498857
979.961	0.632225
981.62	0.765366
983.28	0.388245
984.941	0.562873
986.6	0.0938311
988.259	0.574909
989.917	-0.139631
991.575	0.847772
993.233	0.663245
994.89	0.523157
996.547	0.250965
998.204	0.640549
999.86	1.40409
1001.52	1.96812
1003.17	1.84877
1004.83	1.44337
1006.49	1.36805
1008.14	1.33687
1009.79	0.713539
1011.45	1.49495
1013.1	0.785485
1014.76	0.471498
1016.41	0.683613
1018.06	0.699033
1019.72	0.540181
1021.37	0.64472
1023.02	1.25292
1024.67	0.550509
1026.32	1.11624
1027.97	0.960862
1029.62	0.89236
1031.27	1.2596
1032.92	1.0575
1034.57	0.657706
1036.22	1.63074
1037.87	1.18547
1039.52	1.43736
1041.17	0.710652
1042.82	0.486063
1044.47	0.458781
1046.11	0.824185
1047.76	1.23457
1049.41	0.430285
1051.06	0.517532
1052.7	0.105873
1054.35	0.194153
1055.99	-6.19888e-005
1057.64	0.348891
1059.28	0.414907
1060.93	0.697833
1062.57	0.566954
1064.22	-0.282244
1065.86	0.433164
1067.5	0.647441
1069.15	0.838982
1070.79	0.226267
1072.43	0.35198
1074.08	0.0223312
1075.72	1.06031
1077.36	1.03633
1079	1.27375
1080.64	0.492716
1082.28	0.644153
1083.92	0.79482
1085.56	0.965673
1087.2	1.19955
1088.84	1.43121
1090.48	0.57902
1092.12	1.00259
1093.76	0.820184
1095.39	0.724565
1097.03	0.974764
1098.67	0.988846
1100.31	1.13369
1101.94	0.656156
1103.58	0.804423
1105.22	0.58819
1106.85	0.135962
1108.49	0.973914
1110.12	0.778584
1111.76	0.58195
1113.39	0.512935
1115.03	0.593144
1116.66	0.672695
1118.29	0.666453
1119.93	0.660827
1121.56	1.34129
1123.19	1.1232
1124.82	0.585285
1126.46	1.28907
1128.09	0.752961
1129.72	0.966043
1131.35	1.00858
1132.98	1.07278
1134.61	0.431465
1136.24	0.815642
1137.87	0.45087
1139.5	0.341573
1141.13	0.978716
1142.76	0.18504
1144.39	0.565313
1146.01	0.114401
1147.64	0.96464
1149.27	-0.14491
1150.9	0.450543
1152.53	0.896673
1154.15	0.746167
1155.78	0.808204
1157.4	0.189248
1159.03	0.443025
1160.65	-0.046855
1162.28	0.633792
1163.9	0.0183001
1165.53	0.445105
1167.15	0.0212421
1168.78	0.617015
1170.4	0.382157
1172.02	0.0182886
1173.65	0.0566931
1175.27	0.5395
1176.89	-0.0812721
1178.51	0.167562
1180.14	-0.0702429
1181.76	0.433417
1183.38	-0.120013
1185	0.40487
1186.62	-0.0219107
1188.24	-0.301726
1189.86	-0.540489
1191.48	0.440815
1193.1	0.261923
1194.71	0.712645
1196.33	0.197639
1197.95	0.354856
1199.57	0.513198
1201.19	0.359879
1202.8	0.522351
1204.42	0.269567
1206.04	0.269223
1207.65	0.457823
1209.27	0.855258
1210.88	1.08503
1212.5	0.81272
1214.12	-0.0239801
1215.73	0.283722
1217.35	0.610123
1218.96	0.311508
1220.57	0.864509
1222.19	1.12665
1223.8	0.581359
1225.41	0.825096
1227.03	0.759505
1228.64	0.426379
1230.25	1.00438
1231.86	0.921675
1233.47	1.60484
1235.08	0.656356
1236.69	0.825045
1238.31	0.953367
1239.92	1.20645
1241.52	0.818646
1243.13	0.368315
1244.74	0.848288
1246.35	1.74132
1247.96	0.915914
1249.57	0.752009
1251.18	0.670601
1252.78	1.08583
1254.39	0.819066
1256	1.23585
1257.6	0.867741
1259.21	1.12132
1260.82	0.796277
1262.42	0.55428
1264.03	0.767875
1265.63	0.856936
1267.24	1.06979
1268.84	0.659913
1270.45	1.11985
1272.05	0.521423
1273.65	1.0417
1275.26	0.503784
1276.86	1.06359
1278.46	0.524413
1280.06	0.337114
1281.67	1.08107
1283.27	0.914183
1284.87	0.913348
1286.47	1.2234
1288.07	0.934856
1289.67	0.77124
1291.27	0.422159
1292.87	1.31278
1294.47	0.963012
1296.07	1.25249
1297.67	1.25128
1299.27	0.505809
1300.87	0.234189
1302.47	1.09489
1304.06	0.862473
1305.66	1.32886
1307.26	1.69113
1308.85	0.944476
1310.45	1.10114
1312.05	1.68773
1313.64	1.16941
1315.24	1.59293
1316.83	1.58787
1318.43	1.97101
1320.02	1.45646
1321.62	2.14372
1323.21	1.85143
1324.8	2.00525
1326.4	1.48736
1327.99	2.14615
1329.59	1.64959
1331.18	1.722
1332.77	1.71556
1334.36	2.17569
1335.95	1.52701
1337.54	2.06956
1339.14	1.94572
1340.73	1.84059
1342.32	1.59271
1343.91	1.68515
1345.5	1.51529
1347.09	1.36592
1348.67	1.5189
1350.26	1.15355
1351.85	1.63113
1353.44	1.53041
1355.03	1.41106
1356.62	1.8916
1358.2	2.1118
1359.79	0.953056
1361.38	1.05177
1362.96	1.32913
1364.55	1.30678
1366.14	1.46398
1367.72	1.16372
1369.31	1.80043
1370.89	1.44306
1372.48	1.14683
1374.06	1.28944
1375.64	1.4128
1377.23	1.0587
1378.81	1.36081
1380.39	1.46299
1381.98	1.2655
1383.56	1.10667
1385.14	0.927165
1386.72	1.2242
1388.3	1.2232
1389.89	1.08386
1391.47	1.16371
1393.05	0.688796
1394.63	1.10697
1396.21	0.592843
1397.79	1.50564
1399.37	1.32701
1400.95	1.16743
1402.52	1.66068
1404.1	1.30263
1405.68	0.925659
1407.26	1.34041
1408.84	0.925805
1410.42	0.985997
1411.99	0.967146
1413.57	1.06622
1415.15	0.868427
1416.72	1.63636
1418.3	1.00368
1419.87	1.17962
1421.45	1.33666
1423.02	1.1604
1424.6	0.907002
1426.17	1.20588
1427.75	1.3872
1429.32	1.214
1430.89	1.51235
1432.47	1.16016
1434.04	1.63348
1435.61	1.26041
1437.18	1.91009
1438.76	1.85251
1440.33	1.2456
1441.9	1.26857
1443.47	1.94075
1445.04	1.72891
1446.61	1.49757
1448.18	2.46542
1449.75	2.52941
1451.32	2.49557
1452.89	2.34425
1454.46	2.01623
1456.03	1.68802
1457.6	2.73665
1459.16	2.24914
1460.73	1.85833
1462.3	2.13476
1463.87	1.93738
1465.43	1.20843
1467	1.5996
1468.56	1.10716
1470.13	1.12622
1471.7	1.38169
1473.26	0.716206
1474.83	1.14981
1476.39	1.32879
1477.96	1.35099
1479.52	0.569427
1481.08	0.532765
1482.65	0.437246
1484.21	0.53758
1485.77	0.324137
1487.34	0.776046
1488.9	0.541298
1490.46	0.794347
1492.02	0.849597
1493.58	0.883255
1495.15	0.115297
1496.71	0.673236
1498.27	0.412211
1499.83	0.560431
1501.39	0.418028
1502.95	0.432095
1504.51	0.718172
1506.07	0.578102
1507.63	0.283048
1509.18	0.103639
1510.74	0.270982
1512.3	0.186634
1513.86	0.0059185
1515.41	0.267901
1516.97	0.299338
1518.53	1.07923
1520.08	0.32552
1521.64	0.759994
1523.2	-0.0300636
1524.75	0.517458
1526.31	0.910212
1527.86	0.101467
1529.42	0.663535
1530.97	0.274573
1532.52	0.399081
1534.08	0.372506
1535.63	0.271231
1537.19	0.473294
1538.74	0.600049
1540.29	0.783463
1541.84	0.40145
1543.4	0.415322
1544.95	0.936638
1546.5	0.66783
1548.05	0.999848
1549.6	0.937516
1551.15	1.30613
1552.7	1.18812
1554.25	0.473078
1555.8	1.0864
1557.35	1.04721
1558.9	0.692635
1560.45	0.955553
1562	1.25718
1563.54	0.94421
1565.09	1.07951
1566.64	1.19629
1568.19	1.40622
1569.73	1.37318
1571.28	1.13443
1572.83	1.15673
1574.37	1.4029
1575.92	1.03306
1577.47	1.20476
1579.01	1.0968
1580.56	1.06405
1582.1	1.03197
1583.64	1.16876
1585.19	1.02599
1586.73	1.594
1588.28	1.17132
1589.82	1.12232
1591.36	1.5783
1592.9	1.50985
1594.45	1.38489
1595.99	1.37228
1597.53	1.45374
1599.07	1.40462
1600.61	1.35609
1602.15	1.19534
1603.69	1.91698
1605.23	1.51149
1606.77	1.76219
1608.31	1.39091
1609.85	0.942327
1611.39	0.792498
1612.93	1.65517
1614.47	1.6523
1616.01	1.49895
1617.55	1.25246
1619.08	1.38197
1620.62	1.32546
1622.16	1.10172
1623.7	1.00986
1625.23	1.06782
1626.77	0.975389
1628.3	1.31218
1629.84	1.49783
1631.37	1.04686
1632.91	1.66068
1634.44	1.07933
1635.98	1.48816
1637.51	1.44986
1639.05	1.72912
1640.58	1.44913
1642.11	1.50413
1643.65	1.22291
1645.18	1.3317
1646.71	1.27215
1648.24	1.47251
1649.78	1.65433
1651.31	1.6698
1652.84	1.94607
1654.37	1.463
1655.9	1.09209
1657.43	1.01784
1658.96	1.77645
1660.49	1.49649
1662.02	2.085
1663.55	1.56242
1665.08	1.42798
1666.61	1.9769
1668.14	1.30881
1669.66	1.41704
1671.19	0.826362
1672.72	1.41592
1674.25	1.36107
1675.77	1.54538
1677.3	1.93131
1678.83	1.72721
1680.35	0.86042
1681.88	1.33529
1683.4	0.909475
1684.93	0.759516
1686.45	1.41695
1687.98	1.54249
1689.5	1.4118
1691.03	0.842036
1692.55	1.29775
1694.07	0.966412
1695.6	0.671822
1697.12	0.76103
1698.64	0.44808
1700.17	0.956391
1701.69	0.569912
1703.21	0.456843
1704.73	0.398087
1706.25	0.4482
1707.77	0.952451
1709.29	0.111633
1710.81	0.361207
1712.33	0.302237
1713.85	0.352208
1715.37	0.221116
1716.89	0.0359201
1718.41	0.176229
1719.93	0.0273051
1721.45	0.456134
1722.97	0.145556
1724.49	0.719079
1726	-0.0214763
1727.52	0.319764
1729.04	0.319706
1730.55	0.283751
1732.07	0.619802
1733.59	0.421804
1735.1	0.124383
1736.62	0.312862
1738.13	0.313103
1739.65	0.13931
1741.16	0.0870953
1742.68	-0.237629
1744.19	0.135886
1745.7	0.063623
1747.22	0.09589
1748.73	0.23606
1750.24	0.0798001
1751.76	0.512537
1753.27	-0.02284
1754.78	0.301146
1756.29	0.0861149
1757.8	-0.0726094
1759.31	0.0688381
1760.83	-0.0070529
1762.34	0.120904
1763.85	0.60317
1765.36	0.277753
1766.87	0.111544
1768.38	0.15548
1769.89	0.0683165
1771.39	0.161244
1772.9	0.168919
1774.41	0.215884
1775.92	0.437683
1777.43	-0.115261
1778.94	0.133751
1780.44	-0.0198364
1781.95	0.518291
1783.46	-0.377712
1784.96	0.100555
1786.47	0.161475
1787.97	0.234164
1789.48	0.210182
1790.99	0.189215
1792.49	0.198715
1794	0.0738716
1795.5	0.0977082
1797	0.0280848
1798.51	0.0568051
1800.01	-0.0343409
1801.51	-0.000451088
1803.02	-0.000283718
1804.52	0.203602
1806.02	0.0283871
1807.53	0.22393
1809.03	-0.16932
1810.53	0.0782609
1812.03	0.105122
1813.53	0.149191
1815.03	0.217366
1816.53	0.492339
1818.03	0.0411849
1819.53	-0.168669
1821.03	0.105947
1822.53	0.115168
1824.03	0.0474672
1825.53	-0.307727
1827.03	-0.305201
1828.53	0.0588074
1830.02	0.147208
1831.52	-0.0857067
1833.02	0.161502
1834.52	0.173287
1836.01	-0.0793247
1837.51	0.160381
1839.01	0.110874
1840.5	0.103232
1842	0.111982
1843.49	0.118387
1844.99	0.0285115
1846.48	-0.318221
1847.98	-0.172393
1849.47	0.0510612
1850.97	-0.134704
1852.46	-0.044446
1853.95	0.161316
1855.45	0.157885
1856.94	0.0611978
1858.43	-0.0484419
1859.93	0.0586791
1861.42	0.274124
1862.91	0.0755963
1864.4	0.235492
1865.89	0.187812
1867.38	0.387327
1868.87	-0.137193
1870.36	-0.0466313
1871.85	-0.322556
1873.34	-0.0231209
1874.83	-0.0107603
1876.32	0.104665
1877.81	0.527211
1879.3	-0.114896
1880.79	-0.216113
1882.28	-0.0177341
1882.52	0.0211906
1884.02	0.281631
1885.51	0.122984
1887.01	-0.0710931
1888.5	0.500542
1889.99	-0.0939569
1891.49	0.304204
1892.98	0.0775719
1894.47	0.321961
1895.97	0.167793
1897.46	-0.0726709
1898.95	0.0867672
1900.44	-0.224318
1901.93	0.350452
1903.42	0.0365443
1904.91	0.190993
1906.4	0.414114
1907.89	0.168116
1909.38	0.183234
1910.87	0.268543
1912.36	0.00764465
1913.85	0.00748777
1915.34	-0.218017
1916.83	-0.010282
1918.32	0.283564
1919.8	0.195665
1921.29	0.332914
1922.78	-0.256831
1924.27	0.141227
1925.75	0.159297
1927.24	-0.185282
1928.73	0.509475
1930.21	-0.0597358
1931.7	-0.0409126
1933.18	0.0632863
1934.67	0.235192
1936.15	0.197907
1937.64	0.263385
1939.12	0.0864787
1940.61	0.220863
1942.09	0.269527
1943.57	0.146553
1945.06	0.179609
1946.54	0.0750551
1948.02	0.0910063
1949.51	0.140776
1950.99	0.120783
1952.47	0.0484085
1953.95	0.0960107
1955.43	-0.0799065
1956.91	0.174041
1958.4	-0.0694523
1959.88	-0.415005
1961.36	-0.00534296
1962.84	0.0442047
1964.32	-0.403292
1965.8	0.296565
1967.27	0.259155
1968.75	-0.394531
1970.23	0.2683
1971.71	0.0588737
1973.19	0.0374484
1974.67	0.169635
1976.14	-0.0731726
1977.62	0.110301
1979.1	0.327656
1980.58	0.136464
1982.05	0.353344
1983.53	0.29788
1985	-0.080286
1986.48	0.271208
1987.95	0.334036
1989.43	0.143032
1990.9	-0.317893
1992.38	0.16964
1993.85	0.217987
1995.33	-0.155481
1996.8	0.147418
1998.27	0.38254
1999.75	-0.0919237
2001.22	-0.195257
2002.69	0.460089
2004.16	0.0694761
2005.64	0.370371
2007.11	0.115824
2008.58	0.316891
2010.05	-0.1043
2011.52	0.451411
2012.99	-0.0365067
2014.46	0.064363
2015.93	-0.0878143
2017.4	0.196627
2018.87	-0.108232
2020.34	0.0236011
2021.81	0.222357
2023.28	0.236553
2024.75	-0.117712
2026.22	-0.252712
2027.69	-0.000750065
2029.15	0.202118
2030.62	0.0874257
2032.09	0.141301
2033.56	0.128476
2035.02	-0.22024
2036.49	0.388032
2037.96	-0.062397
2039.42	0.242932
2040.89	-0.00639009
2042.35	0.349803
2043.82	0.0340562
2045.28	-0.0287757
2046.75	-0.023694
2048.21	-0.0857344
2049.67	-0.0469847
2051.14	0.294473
2052.6	0.16261
2054.07	0.636331
2055.53	-0.0550852
2056.99	-0.0730114
2058.45	0.329684
2059.92	0.0581684
2061.38	0.00609827
2062.84	-0.163094
2064.3	-0.062119
2065.76	0.0228243
2067.22	0.125296
2068.68	0.531234
2070.14	0.0117178
2071.6	0.115029
2073.06	-0.135339
2074.52	-0.0155144
2075.98	0.0703773
2077.44	0.122293
2078.9	0.106517
2080.36	-0.0611825
2081.82	0.157937
2083.27	0.1071
2084.73	0.274434
2086.19	0.373747
2087.65	-0.166481
2089.1	0.167358
2090.56	0.181543
2092.02	0.162076
2093.47	0.192896
2094.93	-0.0280852
2096.38	0.0357094
2097.84	0.015132
2099.29	-0.123074
2100.75	-0.629219
2102.2	0.436309
2103.66	0.0983396
2105.11	0.412732
2106.56	-0.0727673
2108.02	0.143406
2109.47	0.142983
2110.92	0.158789
2112.38	-0.109766
2113.83	-0.013042
2115.28	-0.000941753
2116.73	-0.155833
2118.18	0.0219984
2119.63	0.101036
2121.09	-0.0175309
2122.54	-0.184202
2123.99	-0.0511732
2125.44	-0.116626
2126.89	0.514071
2128.34	0.198885
2129.79	0.346714
2131.23	0.393965
2132.68	-0.0726318
2134.13	0.321513
2135.58	0.00490046
2137.03	0.268223
2138.48	-0.227273
2139.92	0.534784
2141.37	0.124759
2142.82	0.0461783
2144.27	0.249292
2145.71	-0.225878
2147.16	0.225528
2148.6	-0.118247
2150.05	0.216339
2151.49	0.0366235
2152.94	0.0383654
2154.38	0.0560317
2155.83	0.00706768
2157.27	0.306037
2158.72	-0.1233
2160.16	0.0778589
2161.6	-0.299531
2163.05	0.36866
2164.49	0.491374
2165.93	-0.148758
2167.38	0.0906725
2168.82	0.179984
2170.26	0.118309
2171.7	0.254574
2173.14	-0.326012
2174.58	0.00729275
2176.03	0.47308
2177.47	0.0409908
2178.91	0.424256
2180.35	0.0102496
2181.79	-0.33661
2183.23	0.0153279
2184.67	0.251174
2186.1	-0.0784597
2187.54	0.407123
2188.98	0.410297
2190.42	0.346872
2191.86	0.150026
2193.3	0.385447
2194.73	0.286819
2196.17	-0.0296164
2197.61	0.0352964
2199.05	0.098803
2200.48	0.211242
2201.92	-0.0750613
2203.35	0.170456
2204.79	0.167813
2206.22	0.016839
2207.66	-0.100455
2209.1	-0.11843
2210.53	-0.186636
2211.97	0.521877
2213.4	-0.0769644
2214.83	0.332484
2216.27	0.0651031
2217.7	-0.0525875
2219.13	0.0286918
2220.57	0.341395
2222	-0.202992
2223.43	0.158561
2224.86	0.00822687
2226.29	-0.110372
2227.72	0.312455
2229.16	0.0600429
2230.59	0.365326
2232.02	0.0470467
2233.45	0.171655
2234.88	0.116728
2236.31	-0.00248384
2237.74	-0.00597525
2239.17	0.0736256
2240.6	-0.253019
2242.03	-0.105157
2243.45	0.141529
2244.88	0.731071
2246.31	0.161979
2247.74	0.0157275
2249.17	0.210174
2250.59	-0.118717
2252.02	0.170025
2253.45	-0.0628114
2254.87	-0.181254
2256.3	0.15618
2257.73	-0.0403566
2259.15	-0.0722618
2260.58	0.287563
2262	-0.113302
2263.43	0.087626
2264.85	0.435301
2266.28	-0.143754
2267.7	0.219509
2269.13	0.0452647
2270.55	0.277237
2271.97	-0.223814
2273.4	-0.0249224
2274.82	-0.00506783
2276.24	0.340833
2277.67	0.165524
2279.09	-0.221761
2280.51	0.124505
2281.93	-0.0184798
2283.35	0.295204
2284.77	0.543802
2286.2	0.107142
2287.62	-0.198844
2289.04	0.328327
2290.46	0.349685
2291.88	0.224173
2293.3	0.131365
2294.72	-0.337865
2296.13	0.0763364
2297.55	-0.0331726
2298.97	0.299592
2300.39	0.0427656
2301.81	-0.0992861
2303.23	-0.126413
2304.64	0.224095
2306.06	0.377828
2307.48	0.367109
2308.89	0.323039
2310.31	0.212666
2311.73	-0.358683
2313.14	0.237817
2314.56	0.0614295
2315.98	0.01723
2317.39	0.270173
2318.81	0.0127358
2320.22	0.414568
2321.64	0.0403252
2323.05	-0.0221062
2324.46	0.392182
2325.88	0.127986
2327.29	0.489238
2328.7	0.618715
2330.12	0.484666
2331.53	0.450292
2332.94	0.120652
2334.35	0.0222611
2335.77	-0.108787
2337.18	0.00656128
2338.59	0.252569
2340	0.201628
2341.41	0.0185781
2342.82	0.212789
2344.23	-0.183677
2345.64	0.0761518
2347.05	-0.0244508
2348.46	-0.354074
2349.87	0.167058
2351.28	0.229122
2352.69	0.224932
2354.1	0.138372
2355.51	0.214409
2356.91	-0.117047
2358.32	0.105169
2359.73	-0.176661
2361.14	-0.0358343
2362.54	0.0560455
2363.95	-0.0629101
2365.36	-0.197839
2366.76	0.0878568
2368.17	0.341171
2369.58	0.336783
2370.98	0.172325
2372.39	-0.216359
2373.79	0.10467
2375.2	0.168195
2376.6	0.167
2378	0.132751
2379.41	0.000863552
2380.81	-0.0197825
2382.22	0.0706997
2383.62	0.288351
2385.02	-0.230525
2386.43	-0.0928059
2387.83	0.0453176
2389.23	-0.262302
2390.63	-0.201991
2392.03	-0.0930815
2393.44	0.111962
2394.84	-0.223258
2396.24	0.348539
2397.64	-0.335072
2399.04	-0.0327353
2400.44	0.444612
2401.84	0.302601
2403.24	0.0177379
2404.64	0.145498
2406.04	0.240736
2407.44	-0.0774202
2408.84	0.000553608
2410.23	0.0147681
2411.63	0.330158
2413.03	0.218358
2414.43	-0.113964
2415.83	0.299047
2417.22	0.0957212
2418.62	-0.0752287
2420.02	-0.119256
2421.41	0.200933
2422.81	-0.112776
2424.21	0.0802317
2425.6	0.0356321
2427	-0.119517
2428.39	0.20156
2429.79	0.301594
2431.18	0.386427
2432.58	0.122227
2433.97	0.0161638
2435.36	0.353933
2436.76	0.261603
2438.15	0.469845
2439.54	0.168604
2440.94	0.216107
2442.33	0.0567536
2443.72	0.119433
2445.12	0.356381
2446.51	0.371029
2447.9	-0.0581789
2449.29	0.526744
2450.68	0.098012
2452.07	0.0815654
2453.46	-0.124118
2454.85	0.193037
2456.24	0.0993876
2457.64	-0.104711
2459.02	-0.13493
2460.41	0.0399857
2461.8	-0.00717449
2463.19	-0.0549555
2464.58	-0.0715809
2465.97	0.0221047
2467.36	0.0682673
2468.75	-0.201226
2470.13	0.0655713
2471.52	-0.0781002
2472.91	-0.0331259
2474.3	0.105616
2475.68	-0.181094
2477.07	0.5854
2478.45	-0.0313926
2479.84	-0.00369835
2481.23	0.353356
2482.61	-0.0109119
2484	-0.249738
2485.38	-0.0978436
2486.77	0.146571
2488.15	0.295889
2489.54	0.210439
2490.92	-0.310713
2492.3	-0.0218329
2493.69	0.282747
2495.07	-0.0637016
2496.45	0.102959
2497.84	0.285553
2499.22	-0.352237
2500.6	0.325315
2501.98	-0.0961227
2503.36	-0.116164
2504.75	-0.136891
2506.13	0.0422239
2507.51	0.174562
2508.89	0.106843
2510.27	-0.0525298
2511.65	-0.257094
2513.03	0.0298333
2514.41	-0.035305
2515.79	0.328913
2517.17	-0.0868216
2518.55	0.0181575
2519.93	0.153722
2521.3	0.0751057
2522.68	-0.0955458
2524.06	0.0841565
2525.44	0.339191
2526.82	0.273798
2528.19	0.0719023
2529.57	0.0688519
2530.95	-0.0696998
2532.32	-0.115638
2533.7	0.0370293
2535.08	0.311797
2536.45	0.161129
2537.83	-0.0812201
2539.2	-0.050889
2540.58	0.176126
2541.95	0.0536013
2543.33	0.265169
2544.7	0.234619
2546.08	-0.416786
2547.45	0.0855799
2548.82	-0.063621
2550.2	0.0603175
2551.57	0.0473094
2552.94	0.170137
2554.32	-0.0417552
2555.69	0.246351
2557.06	-0.0273547
2558.43	-0.0280848
2559.8	-0.271158
2561.18	0.107696
2562.55	0.305093
2563.92	0.215022
2565.29	0.231386
2566.66	-0.236994
2568.03	0.143346
2569.4	0.250914
2570.77	-0.172001
2572.14	0.359992
2573.51	-0.214465
2574.88	0.0600057
2576.25	0.213258
2577.61	0.0632143
2578.98	-0.0567088
2580.35	-0.298236
2581.72	0.11191
2583.09	0.279113
2584.45	0.218676
2585.82	0.0369377
2587.19	-0.0082655
2588.55	0.0679269
2589.92	0.356358
2591.29	-0.143345
2592.65	-0.309989
2594.02	-0.0076108
2595.38	-0.00909853
2596.75	-0.117383
2598.11	0.15199
2599.48	0.269546
2600.84	-0.111593
2602.21	0.0668583
2603.57	0.260774
2604.93	0.198468
2606.3	0.0156894
2607.66	-0.00135994
2609.02	0.0261288
2610.39	0.293578
2611.75	0.213373
2613.11	-0.0030055
2614.47	0.110848
2615.83	0.299271
2617.19	-0.0371652
2618.56	0.0768185
2619.92	0.0715127
2621.28	0.231293
2622.64	0.0177236
2624	0.192862
2625.36	0.457247
2626.72	0.199122
2628.08	0.254003
2629.44	0.174529
2630.8	0.124748
2632.15	0.342533
2633.51	0.144003
2634.87	0.539435
2636.23	0.103715
2637.59	0.0687647
2638.94	0.38925
2640.3	-0.119143
2641.66	0.334366
2643.02	0.13743
2644.37	0.132819
2645.73	0.201902
2647.09	-0.142226
2648.44	0.235363
2649.8	0.243702
2651.15	-0.204298
2652.51	0.156071
2653.86	0.0023942
2655.22	-0.0624466
2656.57	0.108034
2657.93	-0.0574193
2659.28	0.0998693
2660.63	0.345058
2661.99	0.209904
2663.34	-0.0278554
2664.69	0.128106
2666.05	0.0206733
2667.4	0.0441723
2668.75	-0.0635161
2670.1	0.352976
2671.45	-0.0158467
2672.81	-0.0349374
2674.16	0.120756
2675.51	0.000976086
2676.86	0.534643
2678.21	-0.0482926
2679.56	-0.0502214
2680.91	0.325641
2682.26	0.0790462
2683.61	0.0218911
2684.96	0.0960379
2686.31	0.0545306
2687.66	-0.0452003
2689	0.246028
2690.35	0.506848
2691.7	0.490233
2693.05	0.312699
2694.4	0.293993
2695.74	0.0142803
2697.09	0.111965
2698.44	0.109266
2699.79	0.0934725
2701.13	-0.0222511
2702.48	0.239806
2703.83	0.43047
2705.17	0.433278
2706.52	0.175054
2707.86	-0.127167
2709.21	0.179728
2710.55	0.210614
2711.9	0.284871
2713.24	0.155607
2714.58	0.433205
2715.93	0.463727
2717.27	0.275975
2718.62	0.000615597
2719.96	0.423265
2721.3	0.219884
2722.65	0.103361
2723.99	0.321198
2725.33	0.233
2726.67	0.406469
2728.01	0.579632
2729.35	0.417843
2730.7	0.328709
2732.04	0.210466
2733.38	0.499631
2734.72	0.163423
2736.06	0.0892353
2737.4	0.116968
2738.74	0.304649
2740.08	0.259417
2741.42	0.591827
2742.76	0.196696
2744.1	-0.126173
2745.43	0.378729
2746.77	0.0115657
2748.11	0.0509791
2749.45	0.177437
2750.79	0.115412
2752.12	0.372591
2753.46	0.0645609
2754.8	0.249472
2756.14	0.289537
2757.47	0.402112
2758.81	0.138471
2760.14	-0.211573
2761.48	0.263735
2762.81	0.203959
2764.15	0.0721073
2765.49	-0.276771
2766.82	0.227591
2768.16	-0.252547
2769.49	-0.0394173
2770.82	0.157869
2772.16	0.20934
2773.49	0.129969
2774.82	0.0214343
2776.16	0.143508
2777.49	0.179318
2778.82	0.0285816
2780.16	0.0222039
2781.49	0.0448208
2782.82	-0.119089
2784.15	-0.282834
2785.48	0.112555
2786.82	-0.0510054
2788.15	-0.213957
2789.48	0.28204
2790.81	0.663967
2792.14	0.13127
2793.47	-0.200644
2794.8	0.0250072
2796.13	0.135964
2797.46	0.117836
2798.79	0.199187
2800.12	0.151653
2801.44	-0.0101929
2802.77	0.170143
2804.1	-0.105951
2805.43	0.00243664
2806.76	0.352145
2808.08	-0.20945
2809.41	-0.102597
2810.74	0.202919
2812.07	-0.300385
2813.39	0.318311
2814.72	-0.068923
2816.05	0.0555563
2817.37	-0.187567
2818.7	0.00918627
2820.02	0.234298
2821.35	0.388149
2822.67	0.385503
2824	0.212291
2825.32	0.0105286
2826.65	0.276214
2827.97	0.259063
2829.3	0.0158954
2830.62	0.466804
2831.94	0.351641
2833.26	0.363836
2834.59	0.389909
2835.91	0.599527
2837.23	0.539769
2838.56	0.819149
2839.88	0.490102
2841.2	1.02375
2842.52	0.652876
2843.84	0.97522
2845.16	1.11443
2846.48	1.28246
2847.8	1.39431
2849.12	0.926702
2850.45	1.34927
2851.77	1.36151
2853.08	1.1613
2854.4	1.54017
2855.72	1.52316
2857.04	1.9017
2858.36	1.33383
2859.68	1.85354
2861	2.0623
2862.32	2.56714
2863.63	2.23869
2864.95	2.15004
2866.27	2.28711
2867.59	2.43846
2868.9	3.02726
2870.22	3.32021
2871.54	3.68372
2872.85	3.39855
2874.17	3.35229
2875.48	3.43177
2876.8	3.66495
2878.11	3.43273
2879.43	4.0021
2880.74	3.98083
2882.06	4.07283
2883.37	3.89902
2884.69	3.75441
2886	3.77893
2887.31	4.15441
2888.63	3.85575
2889.94	4.29991
2891.25	4.42036
2892.57	4.83439
2893.88	4.39332
2895.19	4.48515
2896.5	4.53578
2897.82	4.85339
2899.13	4.76624
2900.44	4.72195
2901.75	5.05587
2903.06	4.83048
2904.37	5.16476
2905.68	5.4294
2906.99	5.16314
2908.3	5.34537
2909.61	5.97631
2910.92	6.17433
2912.23	5.68653
2913.54	5.71574
2914.85	6.14947
2916.16	6.13329
2917.46	6.45129
2918.77	5.92854
2920.08	6.14724
2921.39	6.03097
2922.7	6.86668
2924	7.06076
2925.31	7.07443
2926.62	6.92107
2927.92	6.83766
2929.23	6.65597
2930.54	6.87911
2931.84	7.11569
2933.15	6.76489
2934.45	6.81946
2935.76	7.22356
2937.06	6.71944
2938.37	6.90032
2939.67	6.52257
2940.98	6.48076
2942.28	6.57964
2943.58	5.82729
2944.89	5.91488
2946.19	5.48632
2947.49	5.23996
2948.8	5.60904
2950.1	5.26316
2951.4	5.16738
2952.7	4.91564
2954.01	4.97055
2955.31	5.37503
2956.61	4.6606
2957.91	4.39617
2959.21	4.14833
2960.51	4.49135
2961.81	4.48641
2963.11	4.08945
2964.41	4.15469
2965.71	4.40126
2967.01	3.99996
2968.31	4.061
2969.61	3.98072
2970.91	3.75964
2972.21	4.25627
2973.51	3.66995
2974.81	3.56193
2976.1	3.24206
2977.4	3.65311
2978.7	2.97832
2980	3.34377
2981.29	3.10264
2982.59	3.12841
2983.89	2.98578
2985.18	2.77409
2986.48	2.49372
2987.78	2.46776
2989.07	2.10552
2990.37	2.2073
2991.66	2.28055
2992.96	2.14203
2994.25	1.77756
2995.55	1.72127
2996.84	1.69245
2998.14	1.56524
2999.43	1.21398
3000.73	1.08785
3002.02	1.17262
3003.31	1.11762
3004.61	0.726585
3005.9	1.0918
3007.19	0.784326
3008.48	0.588354
3009.77	0.69948
3011.07	0.586275
3012.36	0.305366
3013.65	0.555042
3014.94	0.484118
3016.23	0.38608
3017.52	0.233169
3018.81	0.164406
3020.1	0.0680141
3021.4	0.165993
3022.68	0.235394
3023.97	0.234503
3025.26	0.343913
3026.55	0.175956
3027.84	0.368532
3029.13	0.0364203
3030.42	0.0791545
3031.71	0.150766
3033	0.0714164
3034.28	-0.311156
3035.57	0.120079
3036.86	0.0259366
3038.15	-0.000647545
3039.43	-0.372742
3040.72	0.189425
3042.01	0.00821161
3043.29	0.0879216
3044.58	0.0450087
3045.87	-0.0100203
3047.15	0.059896
3048.44	0.41848
3049.72	0.232765
3051.01	0.294208
3052.29	0.192688
3053.58	0.364143
3054.86	0.0848632
3056.15	0.254956
3057.43	0.314978
3058.71	0.292561
3060	0.664855
3061.28	0.492786
3062.56	0.566644
3063.84	0.709737
3065.13	0.310462
3066.41	0.265992
3067.69	0.439997
3068.97	0.328899
3070.26	-0.0407934
3071.54	0.228062
3072.82	0.237527
3074.1	0.00129604
3075.38	0.280869
3076.66	-0.132627
3077.94	0.024785
3079.22	0.115194
3080.5	0.15264
3081.78	0.110105
3083.06	-0.189054
3084.34	-0.189134
3085.62	0.0687842
3086.9	-0.0806952
3088.18	0.325797
3089.45	0.283848
3090.73	0.0109138
3092.01	0.158611
3093.29	-0.0597553
3094.56	0.0206451
3095.84	0.155571
3097.12	0.07372
3098.4	0.0461507
3099.67	-0.0220742
3100.95	-0.09024
3102.22	-0.117593
3103.5	-0.0362988
3104.78	0.0590134
3106.05	-0.102136
3107.33	0.360098
3108.6	-0.394686
3109.88	0.231951
3111.15	0.101578
3112.43	0.134375
3113.7	0.0186114
3114.97	-0.0835953
3116.25	0.274909
3117.52	0.185384
3118.79	0.420557
3120.07	0.220879
3121.34	0.278208
3122.61	0.226669
3123.88	0.0803266
3125.16	0.0426931
3126.43	0.303327
3127.7	0.401999
3128.97	0.325325
3130.24	0.384341
3131.51	0.281335
3132.79	0.462155
3134.06	0.264462
3135.33	0.458117
3136.6	0.73216
3137.87	0.264026
3139.14	0.577709
3140.41	0.4871
3141.67	0.719579
3142.94	0.763915
3144.21	0.553674
3145.48	0.585889
3146.75	0.431076
3148.02	0.679084
3149.29	0.699824
