200.43	-0.0897141
202.244	-0.0694027
204.059	-0.0483971
205.873	0.167725
207.688	0.140667
209.501	0.380442
211.314	0.81337
213.127	0.298059
214.941	0.655729
216.753	0.0428143
218.564	0.036211
220.375	0.296173
222.186	0.532187
223.999	0.381714
225.809	0.352519
227.618	0.492406
229.428	0.269609
231.236	0.287865
233.045	-0.128452
234.855	0.203269
236.663	0.0292978
238.471	0.121883
240.278	0.40898
242.085	-0.0497165
243.891	-0.507918
245.698	0.481419
247.503	-0.436965
249.309	-0.0295835
251.116	0.32728
252.921	0.392233
254.725	0.648732
256.529	0.229471
258.333	1.23295
260.136	0.622777
261.939	0.182838
263.742	0.370399
265.544	-0.0918565
267.346	0.554501
269.148	0.887469
270.949	-0.0338144
272.75	0.369931
274.55	0.362727
276.351	0.426595
278.15	0.874575
279.95	0.164489
281.749	0.729376
283.548	0.714761
285.346	0.410712
287.144	0.970668
288.942	1.04988
290.739	0.29105
292.536	0.80299
294.333	0.358528
296.129	0.489394
297.925	0.429704
299.721	0.872122
301.514	0.597539
303.309	0.943266
305.104	0.524047
306.898	0.199919
308.692	0.56722
310.486	0.219707
312.279	0.778327
314.072	0.432975
315.862	0.54141
317.654	0.413011
319.446	0.476213
321.238	0.683294
323.029	0.581125
324.819	0.455272
326.608	0.615816
328.398	0.704702
330.188	0.912701
331.977	0.330709
333.766	0.704018
335.553	1.14767
337.341	0.4649
339.129	0.929068
340.917	0.55471
342.704	0.968836
344.489	0.426768
346.275	0.506469
348.062	0.849256
349.845	0.83414
351.631	0.699714
353.416	0.994435
355.201	0.16702
356.984	0.269185
358.768	0.799222
360.552	0.613283
362.333	0.141324
364.116	0.787081
365.899	1.05109
367.68	0.483259
369.462	0.579792
371.243	0.675463
373.023	0.652078
374.804	-0.0332637
376.585	0.770122
378.363	0.534578
380.143	0.629966
381.923	0.231742
383.7	1.22277
385.479	0.379958
387.256	1.11321
389.034	0.766236
390.812	0.161819
392.588	0.732344
394.365	0.0116534
396.14	1.02906
397.916	0.379138
399.691	0.574549
401.467	0.816638
403.24	0.494537
405.015	0.195415
406.788	1.04646
408.563	1.19241
410.335	0.469527
412.109	0.685692
413.88	0.456249
415.654	0.696631
417.424	0.327527
419.197	0.170032
420.967	0.0126643
422.739	0.371519
424.508	0.16653
426.279	0.688657
428.048	0.529353
429.819	0.580972
431.587	0.233548
433.356	-0.277898
435.124	0.548646
436.891	0.107824
438.66	0.699178
440.426	0.632326
442.194	0.493671
443.96	0.30669
445.725	0.399733
447.492	0.0938578
449.257	0.30263
451.021	0.370909
452.787	0.299238
454.551	0.227851
456.314	0.343025
458.079	0.294894
459.842	0.712286
461.604	0.385426
463.368	0.315723
465.13	0.178056
466.891	0.228293
468.654	0.60587
470.415	0.264246
472.175	0.574247
473.935	0.604699
475.696	1.12301
477.456	1.10412
479.215	0.944005
480.973	0.293997
482.733	0.599096
484.491	0.718699
486.249	0.769888
488.006	0.636271
489.765	0.294115
491.522	0.535768
493.278	0.521325
495.034	0.787656
496.789	0.141508
498.544	0.267152
500.301	0.580331
502.056	0.682344
503.81	0.243648
505.564	0.649671
507.317	0.537827
509.071	0.448304
510.825	0.381125
512.578	0.57165
514.33	0.902267
516.082	0.243727
517.833	0.948691
519.585	0.288948
521.335	0.451635
523.086	0.425945
524.836	0.846087
526.586	0.702761
528.335	0.207916
530.085	0.744637
531.835	0.437321
533.584	0.714986
535.332	0.640577
537.08	0.91582
538.827	0.582491
540.574	0.388932
542.321	0.288421
544.068	0.676436
545.814	0.505822
547.56	0.591049
549.305	0.25899
551.05	0.553064
552.795	0.730981
554.54	0.608289
556.282	0.73998
558.025	0.618035
559.769	0.266305
561.512	0.537127
563.255	0.738936
564.997	0.504174
566.739	0.40803
568.481	0.381453
570.223	-0.263939
571.964	0.28498
573.705	0.307241
575.443	0.422518
577.183	-0.0575781
578.923	0.335234
580.663	0.38445
582.402	0.617646
584.141	-0.160851
585.879	0.439247
587.615	0.463731
589.353	0.188278
591.09	0.41831
592.828	-0.042253
594.564	-0.0427642
596.299	-0.273311
598.035	0.140322
599.771	0.576715
601.506	0.368366
603.242	0.0212269
604.974	0.477962
606.709	0.72656
608.443	-0.127994
610.177	0.624896
611.908	0.0927505
613.642	-0.461257
615.374	0.108654
617.105	-0.169413
618.837	-0.126961
620.569	0.0292139
622.3	0.275896
624.03	0.0644612
625.761	0.0360546
627.491	0.601966
629.219	0.461285
630.949	0.0257206
632.677	0.00232315
634.406	0.504595
636.135	0.504646
637.861	0.435029
639.59	0.683046
641.318	0.267267
643.043	0.101066
644.77	0.640099
646.495	0.814391
648.222	0.626063
649.948	0.621978
651.672	0.188943
653.398	0.37213
655.121	0.398623
656.846	0.108015
658.569	0.592471
660.293	0.781055
662.015	0.260898
663.738	0.446822
665.46	0.0368338
667.183	0.905891
668.903	0.951341
670.626	0.585524
672.346	0.426816
674.067	0.429944
675.787	0.66378
677.508	0.807213
679.226	0.262042
680.947	0.404829
682.665	0.431601
684.385	0.502978
686.102	0.388792
687.821	-0.02597
689.538	0.571955
691.254	0.708734
692.972	0.637753
694.688	0.957803
696.406	0.977673
698.121	1.1578
699.835	0.92266
701.552	0.732885
703.266	0.795475
704.98	0.880436
706.695	1.21733
708.409	1.41581
710.121	0.834631
711.836	1.12411
713.548	0.978263
715.26	0.604009
716.973	0.892506
718.685	0.861203
720.396	1.42266
722.108	0.639719
723.818	0.654505
725.528	0.941988
727.238	0.91078
728.949	0.856629
730.658	0.802269
732.367	0.860986
734.075	0.987315
735.785	1.38464
737.493	1.53309
739.2	0.576326
740.907	0.478451
742.614	1.68805
744.322	0.645836
746.028	0.910853
747.734	0.839212
749.439	1.28588
751.144	1.39603
752.849	1.07979
754.555	1.1694
756.26	1.0801
757.963	1.32958
759.667	1.60293
761.37	1.15604
763.073	1.22784
764.775	1.68342
766.477	1.43836
768.179	1.44033
769.883	1.68943
771.584	1.71092
773.285	1.41473
774.986	2.00004
776.686	2.15609
778.386	1.65741
780.085	1.49898
781.785	1.88427
783.484	1.29681
785.182	1.09306
786.881	1.43093
788.579	1.65329
790.276	1.80516
791.974	1.59313
793.671	1.65121
795.367	1.70893
797.064	1.27137
798.76	1.71401
800.456	1.75227
802.151	1.72408
803.846	1.65146
805.541	1.69119
807.234	2.15722
808.928	1.3418
810.622	1.87303
812.315	1.61794
814.008	1.92296
815.701	1.68998
817.394	1.97182
819.086	1.44867
820.778	2.06536
822.468	1.45414
824.159	2.49435
825.85	1.64023
827.541	1.41221
829.231	2.25524
830.921	1.69744
832.609	1.54254
834.298	1.76801
835.987	1.77145
837.676	1.3061
839.364	1.50929
841.051	2.02422
842.738	1.39897
844.426	1.39876
846.113	1.2649
847.798	1.42285
849.484	1.11285
851.171	1.76699
852.857	1.90824
854.54	1.71392
856.226	1.31692
857.911	1.18814
859.593	0.922947
861.278	1.44421
862.961	1.55937
864.645	1.15533
866.327	1.31392
868.01	1.29174
869.692	1.8556
871.373	1.47201
873.055	0.727162
874.735	1.26817
876.416	1.22259
878.097	1.13186
879.776	1.35705
881.457	1.13052
883.135	1.01633
884.815	0.923965
886.495	0.898365
888.172	0.826581
889.851	0.88907
891.528	1.08569
893.206	1.23604
894.882	0.845288
896.56	0.724239
898.237	0.939593
899.912	0.90709
901.589	0.762061
903.263	0.684135
904.94	0.76269
906.614	0.975126
908.289	0.942221
909.962	0.687306
911.635	1.18991
913.31	1.22527
914.982	0.861155
916.656	1.16324
918.328	1.1766
920.001	0.813591
921.672	1.49135
923.345	1.26249
925.015	1.27812
926.685	0.875546
928.357	1.04833
930.026	0.692277
931.698	0.9546
933.366	1.15085
935.035	0.839849
936.705	0.727689
938.373	0.726387
940.041	0.461213
941.71	0.902688
943.377	0.991808
945.044	0.992591
946.712	1.34578
948.378	0.439469
950.044	1.03281
951.709	0.874856
953.376	1.02577
955.041	0.714603
956.706	0.647884
958.372	0.848013
960.036	0.454295
961.699	0.94463
963.362	0.927208
965.027	0.798022
966.69	0.644764
968.352	0.489549
970.014	0.686902
971.676	0.83933
973.339	0.350649
975	0.703317
976.661	0.371623
978.322	0.925658
979.982	0.816615
981.642	0.707247
983.303	0.574786
984.962	0.0204
986.621	0.660001
988.28	0.722763
989.938	0.497129
991.596	0.558584
993.254	0.6861
994.911	0.372028
996.57	0.367246
998.227	0.825482
999.884	0.886368
1001.54	0.550506
1003.2	0.74295
1004.85	0.451087
1006.51	0.818803
1008.16	0.43944
1009.82	-0.00501728
1011.47	0.932966
1013.12	0.248264
1014.78	0.813133
1016.43	0.239274
1018.08	0.475918
1019.74	0.122351
1021.39	0.250703
1023.04	0.773135
1024.69	0.399985
1026.34	0.464364
1028	0.375796
1029.65	0.5053
1031.3	0.56841
1032.95	0.0846348
1034.6	0.952987
1036.25	0.641903
1037.9	-0.0832062
1039.54	0.411736
1041.19	0.819325
1042.84	0.401229
1044.49	0.918998
1046.14	-0.343337
1047.78	-0.083776
1049.43	0.220202
1051.08	0.655362
1052.72	0.135332
1054.37	0.267208
1056.02	0.225265
1057.66	-0.273405
1059.31	0.205858
1060.95	0.315165
1062.6	0.402222
1064.24	0.336454
1065.88	0.465662
1067.53	-0.0579286
1069.17	0.461019
1070.81	0.0453057
1072.45	0.042284
1074.1	0.14804
1075.74	0.0591469
1077.38	0.231376
1079.02	-0.0293365
1080.66	0.0574121
1082.3	0.621207
1083.94	0.555565
1085.58	0.683939
1087.22	0.290804
1088.86	0.308136
1090.5	0.0862741
1092.14	0.274724
1093.78	0.462478
1095.42	-0.23462
1097.05	-0.34793
1098.69	0.121329
1100.33	0.246629
1101.96	-0.0357976
1103.6	-0.0157399
1105.24	-0.0378771
1106.87	0.305987
1108.51	0.434539
1110.14	0.411819
1111.78	-0.170748
1113.41	0.0839672
1115.05	0.251698
1116.68	0.654772
1118.31	0.457083
1119.95	-0.104104
1121.58	0.213888
1123.21	0.382438
1124.85	-0.00476408
1126.48	0.400226
1128.11	0.484765
1129.74	0.462846
1131.37	0.655109
1133	-0.157197
1134.63	-0.0930529
1136.26	-0.178925
1137.89	0.375602
1139.52	-0.0108304
1141.15	0.242888
1142.78	-0.0587997
1144.41	0.0237913
1146.04	0.319915
1147.66	-0.0442047
1149.29	-0.130579
1150.92	-0.0462027
1152.55	0.187205
1154.17	0.590581
1155.8	0.0995636
1157.43	-0.0295477
1159.05	0.841304
1160.68	0.138707
1162.3	0.245031
1163.93	-0.0519667
1165.55	-0.00844145
1167.17	0.353854
1168.8	0.630363
1170.42	0.289232
1172.05	-0.286643
1173.67	0.241027
1175.29	0.236753
1176.91	0.168526
1178.54	-0.217222
1180.16	0.265886
1181.78	0.347008
1183.4	0.0902138
1185.02	-0.229647
1186.64	0.590564
1188.26	0.332416
1189.88	0.0312529
1191.5	0.0874023
1193.12	0.163442
1194.74	-0.13921
1196.36	0.146039
1197.97	-0.0504789
1199.59	0.0682893
1201.21	-0.35493
1202.83	-0.0868206
1204.44	-0.0678225
1206.06	0.161169
1207.68	0.43267
1209.29	0.161954
1210.91	0.9336
1212.52	0.744576
1214.14	0.491644
1215.75	0.175041
1217.37	0.481845
1218.98	0.309378
1220.59	0.801455
1222.21	1.23078
1223.82	0.499892
1225.43	0.392352
1227.05	0.285969
1228.66	0.325402
1230.27	0.469017
1231.88	0.613352
1233.49	0.985809
1235.1	0.821737
1236.72	0.844525
1238.33	0.1238
1239.94	0.18898
1241.55	1.0403
1243.16	0.588429
1244.76	0.487622
1246.37	1.06899
1247.98	0.615018
1249.59	0.326109
1251.2	0.843862
1252.8	0.637654
1254.41	0.452645
1256.02	0.578615
1257.62	0.457183
1259.23	0.853795
1260.84	-0.0528221
1262.44	1.02814
1264.05	0.887738
1265.66	0.436114
1267.26	0.564121
1268.86	0.173254
1270.47	0.237771
1272.07	0.757766
1273.67	0.0123463
1275.28	1.0284
1276.88	0.92431
1278.48	0.467559
1280.09	0.880398
1281.69	0.464793
1283.29	0.566807
1284.89	0.462296
1286.49	0.35844
1288.09	0.544668
1289.69	0.297467
1291.29	0.794542
1292.89	0.547657
1294.49	1.02339
1296.09	1.00235
1297.69	0.91827
1299.29	0.791848
1300.89	0.932563
1302.49	0.268829
1304.08	0.963906
1305.68	0.917004
1307.28	0.808216
1308.88	1.27389
1310.47	1.08276
1312.07	1.13797
1313.66	0.927711
1315.26	0.820701
1316.85	1.18413
1318.45	1.38419
1320.04	1.50232
1321.64	0.927032
1323.23	0.779079
1324.83	0.935136
1326.42	0.988338
1328.01	0.635515
1329.61	1.15461
1331.2	0.74323
1332.79	0.960585
1334.38	0.775328
1335.97	0.793231
1337.56	0.872015
1339.16	0.708395
1340.75	0.966862
1342.34	0.659965
1343.93	0.915176
1345.52	0.647024
1347.11	1.18164
1348.7	0.57452
1350.29	0.950834
1351.87	1.32841
1353.46	1.40723
1355.05	1.06725
1356.64	0.767704
1358.22	1.22714
1359.81	0.82692
1361.4	0.925281
1362.98	0.60404
1364.57	0.562023
1366.16	0.958544
1367.74	0.698027
1369.33	0.876504
1370.91	0.737437
1372.5	0.539684
1374.08	0.720775
1375.67	0.464578
1377.25	0.666114
1378.83	1.2653
1380.41	0.888739
1382	0.511387
1383.58	0.869142
1385.16	0.0730567
1386.74	0.747581
1388.33	0.666961
1389.91	1.0434
1391.49	0.229623
1393.07	0.488083
1394.65	0.350018
1396.23	0.727452
1397.81	0.767216
1399.39	0.727003
1400.97	0.468305
1402.55	0.427211
1404.13	0.28722
1405.7	0.325666
1407.28	0.601818
1408.86	0.720273
1410.44	0.858767
1412.01	0.799695
1413.59	0.779738
1415.17	0.640784
1416.74	0.73803
1418.32	0.795472
1419.89	-0.0530858
1421.47	0.675059
1423.04	0.458876
1424.62	1.24767
1426.19	0.34464
1427.77	0.386724
1429.34	0.428645
1430.91	0.666799
1432.49	0.353129
1434.06	0.668502
1435.63	0.472047
1437.2	0.78702
1438.78	0.63057
1440.35	0.691039
1441.92	0.693187
1443.49	1.20679
1445.06	1.36695
1446.63	0.937592
1448.2	1.33388
1449.77	0.904757
1451.34	1.08538
1452.91	1.06977
1454.48	1.27081
1456.05	1.15712
1457.62	1.06263
1459.18	0.888508
1460.75	0.988724
1462.32	1.26466
1463.89	0.929604
1465.45	0.947882
1467.02	0.592649
1468.59	0.473632
1470.15	0.669299
1471.72	0.963657
1473.28	0.964405
1474.85	0.573521
1476.41	0.69282
1477.98	0.537706
1479.54	0.833443
1481.1	0.541045
1482.67	0.581821
1484.23	0.465749
1485.79	0.819647
1487.36	0.565729
1488.92	0.154477
1490.48	0.544668
1492.04	0.463636
1493.61	0.381285
1495.17	0.395467
1496.73	0.0386686
1498.29	0.402623
1499.85	0.202389
1501.41	0.605125
1502.97	0.716918
1504.53	0.499741
1506.09	0.0121489
1507.65	0.472697
1509.2	0.100933
1510.76	0.404609
1512.32	0.0324593
1513.88	0.411618
1515.43	-0.228836
1516.99	0.169372
1518.55	0.509614
1520.1	-0.0507789
1521.66	0.212973
1523.22	0.265694
1524.77	0.165061
1526.33	0.426294
1527.88	0.305399
1529.44	0.3746
1530.99	0.78536
1532.54	0.417919
1534.1	0.260345
1535.65	0.5578
1537.21	0.0805717
1538.76	0.944923
1540.31	1.01586
1541.86	0.785325
1543.42	0.348153
1544.97	0.682563
1546.52	0.358777
1548.07	0.448329
1549.62	1.24993
1551.17	0.683129
1552.72	0.697706
1554.27	0.750283
1555.82	0.990496
1557.37	0.895675
1558.92	0.503786
1560.47	0.822301
1562.02	0.50761
1563.56	0.566786
1565.11	1.14882
1566.66	1.22724
1568.21	0.838921
1569.75	0.89823
1571.3	0.845278
1572.85	1.46414
1574.39	0.962883
1575.94	1.26434
1577.49	1.11792
1579.03	1.21448
1580.57	0.826035
1582.12	1.20372
1583.66	1.26461
1585.21	0.989708
1586.75	1.31321
1588.3	0.963752
1589.84	1.3062
1591.38	1.34909
1592.92	1.01718
1594.47	0.98454
1596.01	1.32663
1597.55	1.06947
1599.09	0.718845
1600.63	0.912389
1602.17	1.40675
1603.71	1.16926
1605.25	0.686851
1606.79	0.579025
1608.33	1.10894
1609.87	0.941884
1611.41	0.848451
1612.95	1.09177
1614.49	1.08992
1616.03	0.825168
1617.57	0.785987
1619.1	1.19727
1620.64	0.841411
1622.18	0.580323
1623.72	1.1249
1625.25	0.695989
1626.79	0.884321
1628.32	0.285916
1629.86	1.07091
1631.39	0.957261
1632.93	0.75007
1634.46	0.767324
1636	0.878385
1637.53	0.822127
1639.07	0.635842
1640.6	0.841098
1642.13	0.337877
1643.67	0.784053
1645.2	0.819535
1646.73	1.0403
1648.26	0.591593
1649.8	0.756527
1651.33	1.03323
1652.86	1.32903
1654.39	0.772524
1655.92	0.75435
1657.45	1.10673
1658.98	0.587827
1660.51	1.19778
1662.04	0.714528
1663.57	1.08152
1665.1	1.11507
1666.63	0.724319
1668.16	0.795926
1669.68	1.16336
1671.21	0.739214
1672.74	0.960799
1674.27	0.777459
1675.79	0.317917
1677.32	0.815176
1678.85	0.612275
1680.37	0.997226
1681.9	0.241987
1683.42	0.809579
1684.95	0.220407
1686.47	0.97094
1688	0.566202
1689.52	0.272085
1691.05	0.234767
1692.57	0.600151
1694.09	0.324934
1695.62	0.433808
1697.14	0.0125184
1698.66	0.413249
1700.18	-0.044528
1701.71	0.336901
1703.23	0.152469
1704.75	0.350372
1706.27	0.238343
1707.79	0.144494
1709.31	0.0144272
1710.83	-0.0246301
1712.35	0.35354
1713.87	0.441308
1715.39	0.0764022
1716.91	0.164258
1718.43	-0.109574
1719.95	-0.076014
1721.47	0.156065
1722.99	0.47827
1724.5	0.224148
1726.02	0.133239
1727.54	0.061264
1729.06	-0.207982
1730.57	0.349781
1732.09	0.0826168
1733.61	0.0271749
1735.12	0.275704
1736.64	0.00789165
1738.15	0.111791
1739.67	-0.0819139
1741.18	-0.0546031
1742.7	-0.234522
1744.21	-0.0750561
1745.72	0.160669
1747.24	-0.194629
1748.75	0.210331
1750.26	0.269082
1751.77	0.0816307
1753.29	0.157427
1754.8	0.0592904
1756.31	0.311387
1757.82	0.0029645
1759.33	0.086072
1760.84	0.0952096
1762.36	0.16977
1763.87	0.295933
1765.38	-0.0327811
1766.89	0.150724
1768.4	-0.0337086
1769.91	-0.0329885
1771.41	0.358358
1772.92	0.45667
1774.43	-0.10561
1775.94	0.00191402
1777.45	0.0267677
1778.95	-0.0733867
1780.46	-0.0801091
1781.97	0.313033
1783.48	0.130798
1784.98	0.132598
1786.49	0.0836
1787.99	0.3306
1789.5	0.213045
1791.01	-0.0409417
1792.51	-0.0970211
1794.01	0.0558877
1795.52	0.213646
1797.02	0.119226
1798.53	-0.101413
1800.03	0.0254941
1801.53	0.207867
1803.04	0.0504131
1804.54	0.180447
1806.04	0.204367
1807.54	0.0343738
1809.05	-0.0302744
1810.55	0.150928
1812.05	0.300428
1813.55	0.0636864
1815.05	0.105542
1816.55	0.320482
1818.05	-0.11377
1819.55	-0.00536203
1821.05	0.29798
1822.55	0.12798
1824.05	0.116564
1825.55	0.21379
1827.05	0.205443
1828.55	0.402359
1830.04	0.267953
1831.54	-0.0494146
1833.04	0.20638
1834.54	0.153345
1836.03	0.116376
1837.53	0.115602
1839.03	0.0850244
1840.52	0.229429
1842.02	-0.0160551
1843.51	-0.020822
1845.01	-0.135324
1846.5	0.0678039
1848	-0.109632
1849.49	0.00781107
1850.99	0.207357
1852.48	-0.147431
1853.97	-0.0422192
1855.47	0.106302
1856.96	-0.00014782
1858.45	0.142697
1859.94	0.0640273
1861.44	-0.232995
1862.93	-0.229661
1864.42	0.077199
1865.91	-0.0465636
1867.4	0.23375
1868.89	0.00995207
1870.38	0.249164
1871.87	0.275577
1873.36	0.0612144
1874.85	-0.21028
1876.34	-0.182405
1877.83	-0.0297837
1879.32	0.223727
1880.81	0.129551
1882.3	0.00141907
1882.57	-0.0230584
1884.07	-0.00551271
1885.56	0.272897
1887.06	0.0802288
1888.55	0.270408
1890.04	0.303944
1891.54	-0.079258
1893.03	0.0256257
1894.52	0.0447054
1896.02	-0.0917315
1897.51	0.241867
1899	0.0536475
1900.49	0.456206
1901.98	0.318395
1903.47	0.231625
1904.96	0.00491428
1906.45	0.229654
1907.94	-0.257805
1909.43	0.349078
1910.92	0.0191474
1912.41	0.227727
1913.9	-0.118413
1915.39	-0.37768
1916.88	-0.307652
1918.37	0.160651
1919.85	-0.151295
1921.34	0.143134
1922.83	0.00476313
1924.32	-0.115671
1925.8	-0.21806
1927.29	-0.00818825
1928.78	0.0982289
1930.26	0.187314
1931.75	-0.00120258
1933.23	0.501973
1934.72	0.0170765
1936.2	0.0678434
1937.69	0.325282
1939.17	0.219253
1940.66	-0.0763669
1942.14	0.07759
1943.63	-0.130181
1945.11	0.0765858
1946.59	-0.130285
1948.07	0.421077
1949.56	0.248024
1951.04	-0.149349
1952.52	0.12422
1954	0.397071
1955.48	0.257111
1956.96	-0.0026083
1958.45	0.253289
1959.93	-0.125303
1961.41	0.148353
1962.89	0.250501
1964.37	0.0954452
1965.85	-0.0597997
1967.32	-0.0270534
1968.8	0.142076
1970.28	-0.0654249
1971.76	0.188358
1973.24	0.28813
1974.72	0.114937
1976.19	0.31706
1977.67	0.246502
1979.15	0.0739741
1980.63	0.326889
1982.1	0.0864062
1983.58	0.100848
1985.05	0.420558
1986.53	0.196904
1988	0.210839
1989.48	0.0556226
1990.95	0.137969
1992.43	0.136256
1993.9	0.101373
1995.38	-0.000561714
1996.85	-0.000802994
1998.32	0.370459
1999.8	-0.0860481
2001.27	0.183037
2002.74	0.0636282
2004.22	0.298265
2005.69	0.0274105
2007.16	0.0267472
2008.63	-0.175384
2010.1	-0.00652695
2011.57	0.112096
2013.04	0.213878
2014.51	0.332169
2015.98	0.130235
2017.45	0.0623837
2018.92	0.0613046
2020.39	0.0598822
2021.86	0.209512
2023.33	0.040297
2024.8	-0.0947142
2026.27	-0.228908
2027.74	0.426091
2029.2	0.360814
2030.67	0.514489
2032.14	0.182217
2033.61	0.0682592
2035.07	0.172509
2036.54	0.326972
2038.01	0.397148
2039.47	0.248603
2040.94	0.0495315
2042.4	-0.0148768
2043.87	0.341649
2045.33	0.27835
2046.8	-0.104412
2048.26	0.405399
2049.72	0.22449
2051.19	0.413689
2052.65	-0.0726261
2054.12	0.19875
2055.58	0.098001
2057.04	0.283011
2058.5	0.298877
2059.97	-0.0390749
2061.43	0.195958
2062.89	0.751176
2064.35	0.465361
2065.81	0.516844
2067.27	0.0471764
2068.73	0.368859
2070.19	0.0343137
2071.65	0.440472
2073.11	0.206803
2074.57	0.360209
2076.03	0.513412
2077.49	0.380092
2078.95	-0.0060935
2080.41	-0.156786
2081.87	0.702379
2083.32	0.247842
2084.78	0.247396
2086.24	0.0614476
2087.7	0.36286
2089.15	0.176359
2090.61	0.393037
2092.07	0.172946
2093.52	0.372499
2094.98	0.269802
2096.43	0.217175
2097.89	0.264678
2099.34	0.11089
2100.8	0.057478
2102.25	0.0878382
2103.71	0.0518775
2105.16	0.217017
2106.61	0.332821
2108.07	0.115637
2109.52	0.348963
2110.97	0.548456
2112.43	0.0970855
2113.88	0.161352
2115.33	0.241176
2116.78	0.0377092
2118.23	0.250042
2119.68	0.047946
2121.13	0.162461
2122.59	0.0956388
2124.04	0.162375
2125.49	0.0802426
2126.94	0.47875
2128.39	0.478641
2129.83	-0.0360389
2131.28	0.078301
2132.73	-0.105896
2134.18	0.437978
2135.63	0.320411
2137.08	0.0881662
2138.53	0.171138
2139.97	0.4701
2141.42	0.423031
2142.87	0.112082
2144.31	0.479553
2145.76	0.284685
2147.21	0.0894585
2148.65	0.142142
2150.1	0.393126
2151.54	0.312193
2152.99	0.330052
2154.43	0.430243
2155.88	0.0496998
2157.32	0.215927
2158.77	0.647605
2160.21	0.268421
2161.65	0.668999
2163.1	0.308411
2164.54	0.396275
2165.98	0.202509
2167.43	0.191143
2168.87	0.411862
2170.31	0.56517
2171.75	0.251438
2173.19	0.635161
2174.64	0.568861
2176.07	0.352552
2177.52	0.651894
2178.96	0.30325
2180.4	0.437367
2181.84	0.488896
2183.28	0.673833
2184.72	0.676038
2186.15	0.412107
2187.59	0.314475
2189.03	0.38325
2190.47	0.285572
2191.91	0.487361
2193.35	0.339072
2194.78	0.00680923
2196.22	0.339381
2197.66	0.42093
2199.09	0.235296
2200.53	0.348351
2201.97	0.328339
2203.4	0.225819
2204.84	0.40596
2206.27	0.520259
2207.71	0.303451
2209.14	0.119812
2210.58	0.531689
2212.01	0.611638
2213.45	0.327364
2214.88	0.109486
2216.31	-0.0417018
2217.75	0.203884
2219.18	0.417009
2220.61	0.333774
2222.05	0.382492
2223.48	0.265965
2224.91	0.181602
2226.34	0.376008
2227.78	0.437531
2229.21	0.432422
2230.64	0.246381
2232.07	0.175328
2233.5	0.350124
2234.93	0.181645
2236.36	0.177584
2237.79	0.14185
2239.22	0.0420523
2240.65	0.286072
2242.08	0.286471
2243.5	0.0592837
2244.93	0.452102
2246.36	-0.0363111
2247.79	0.534445
2249.22	0.565485
2250.64	0.122602
2252.07	0.0862279
2253.5	0.0168996
2254.92	0.045373
2256.35	0.496767
2257.78	-0.0730953
2259.2	0.283837
2260.63	-0.0388818
2262.05	0.224017
2263.48	0.195796
2264.9	0.265209
2266.33	0.139336
2267.75	0.403269
2269.18	0.0321193
2270.6	0.213737
2272.02	0.411413
2273.45	0.0064702
2274.87	0.106389
2276.29	0.36942
2277.71	0.0785484
2279.14	0.455965
2280.56	0.230178
2281.98	0.150993
2283.4	0.00645351
2284.82	0.171924
2286.24	0.141735
2287.66	0.519956
2289.08	0.245358
2290.5	0.542717
2291.92	0.219298
2293.34	-0.087975
2294.76	0.1444
2296.18	0.458765
2297.6	0.200205
2299.02	-0.0257792
2300.44	0.174293
2301.86	-0.0352235
2303.27	-0.146344
2304.69	0.202129
2306.11	0.04178
2307.53	-0.250399
2308.94	0.0486202
2310.36	0.232395
2311.78	0.448938
2313.19	0.122609
2314.61	0.273657
2316.02	0.31002
2317.44	0.379866
2318.85	0.400611
2320.27	-0.20556
2321.68	0.0945706
2323.1	-0.0684056
2324.51	0.163267
2325.92	0.525431
2327.34	0.869703
2328.75	0.603325
2330.16	0.567984
2331.58	-0.0100102
2332.99	-0.027307
2334.4	0.383717
2335.81	0.0379801
2337.23	0.0374837
2338.64	-0.0951395
2340.05	0.116724
2341.46	0.17997
2342.87	0.111535
2344.28	-0.4488
2345.69	0.352019
2347.1	0.0874023
2348.51	0.0686488
2349.92	0.39319
2351.33	0.226381
2352.74	0.157196
2354.15	-0.271414
2355.55	0.213186
2356.96	0.240671
2358.37	0.251809
2359.78	0.100531
2361.19	0.0794692
2362.59	0.0260162
2364	0.183134
2365.41	0.0163269
2366.81	0.0762405
2368.22	-0.33178
2369.62	0.0680804
2371.03	-0.0799193
2372.44	0.224153
2373.84	0.125983
2375.24	0.108603
2376.65	0.0748987
2378.05	-0.00768948
2379.46	0.133816
2380.86	0.0171986
2382.26	-0.164181
2383.67	0.230856
2385.07	-0.0309997
2386.47	0.179314
2387.88	0.38973
2389.28	0.193949
2390.68	-0.0325556
2392.08	-0.210248
2393.48	0.249309
2394.89	-0.0862603
2396.29	0.182993
2397.69	0.0392461
2399.09	-0.16762
2400.49	-0.1517
2401.89	0.245601
2403.29	0.086966
2404.69	0.182196
2406.09	0.260946
2407.48	-0.0417614
2408.88	-0.0274925
2410.28	0.414539
2411.68	0.0799751
2413.08	0.0946326
2414.48	-0.206562
2415.87	0.031467
2417.27	0.12782
2418.67	-0.0760918
2420.06	0.0368819
2421.46	-0.0402617
2422.86	0.0249338
2424.25	-0.100152
2425.65	0.107552
2427.04	-0.0647335
2428.44	0.017097
2429.83	-0.106615
2431.23	0.103198
2432.62	-0.0677032
2434.02	0.42795
2435.41	0.0494447
2436.81	0.178299
2438.2	0.449184
2439.59	0.274381
2440.99	0.178482
2442.38	-0.0129323
2443.77	0.303395
2445.16	0.15938
2446.56	-0.111441
2447.95	0.109156
2449.34	-0.0347667
2450.73	-0.0675898
2452.12	0.12153
2453.51	0.105326
2454.9	-0.0527143
2456.29	0.121905
2457.68	0.265059
2459.07	-0.113862
2460.46	0.234408
2461.85	0.0602818
2463.24	-0.161651
2464.63	0.311387
2466.02	0.104786
2467.4	-0.133257
2468.79	0.228445
2470.18	0.037715
2471.57	0.146374
2472.95	0.0496941
2474.34	0.0628529
2475.73	-0.128888
2477.12	0.245262
2478.5	0.383221
2479.89	0.128786
2481.27	-0.12514
2482.66	0.0442982
2484.04	0.322742
2485.43	-0.150565
2486.81	0.251249
2488.2	-0.144332
2489.58	-0.118615
2490.97	-0.155291
2492.35	0.150417
2493.73	0.176621
2495.12	0.374264
2496.5	0.308902
2497.88	0.058332
2499.27	0.148785
2500.65	-0.101377
2502.03	0.12745
2503.41	-0.138815
2504.79	0.288995
2506.17	0.0221753
2507.56	0.155946
2508.94	-0.125559
2510.32	0.269507
2511.7	0.0658736
2513.08	0.139015
2514.46	0.0287952
2515.84	0.286619
2517.22	-0.235501
2518.59	0.0994396
2519.97	-0.345171
2521.35	0.0505109
2522.73	0.0332255
2524.11	-0.213332
2525.49	-0.185617
2526.86	-0.0667267
2528.24	0.0218101
2529.62	0.308586
2530.99	0.140137
2532.37	-0.011919
2533.75	-0.223852
2535.12	0.0812087
2536.5	0.0064187
2537.88	0.00717688
2539.25	0.341469
2540.63	0.204392
2542	0.234139
2543.38	0.00614023
2544.75	-0.266705
2546.12	0.0376444
2547.5	0.342757
2548.87	0.223695
2550.24	0.483985
2551.62	0.0155745
2552.99	-0.0285215
2554.36	0.0785127
2555.74	0.139451
2557.11	0.033185
2558.48	-0.0882487
2559.85	-0.224602
2561.22	-0.148381
2562.59	-0.253647
2563.96	-0.0251622
2565.34	0.00658226
2566.71	0.280959
2568.08	0.115923
2569.45	0.375254
2570.82	0.270859
2572.18	-0.0154033
2573.55	0.0318527
2574.92	-0.117898
2576.29	0.172029
2577.66	-0.26583
2579.03	0.251405
2580.4	0.192251
2581.77	0.0721993
2583.13	0.0883927
2584.5	0.119609
2585.87	0.0750079
2587.23	-0.0301232
2588.6	0.00128698
2589.97	-0.103621
2591.33	-0.0267463
2592.7	-0.0410776
2594.06	0.141038
2595.43	0.322415
2596.79	0.0489082
2598.16	0.319795
2599.52	0.212182
2600.89	0.135002
2602.25	-0.153188
2603.62	-0.0784054
2604.98	0.223005
2606.34	0.162301
2607.71	0.0260468
2609.07	0.100388
2610.43	0.0534039
2611.79	0.216374
2613.16	-0.0727301
2614.52	-0.106381
2615.88	-0.0500669
2617.24	-0.188573
2618.6	-0.0269208
2619.96	0.119966
2621.32	-0.0768027
2622.68	-0.0488377
2624.04	-0.125286
2625.4	0.156468
2626.76	0.214015
2628.12	-0.220442
2629.48	0.0453801
2630.84	-0.284424
2632.2	-0.033999
2633.56	-0.00679731
2634.92	-0.113219
2636.28	0.136437
2637.63	0.118976
2638.99	0.0275617
2640.35	0.0547566
2641.71	0.11165
2643.06	0.198193
2644.42	-0.187666
2645.77	-0.115713
2647.13	0.162274
2648.49	0.189007
2649.84	-0.0202551
2651.2	0.0203924
2652.55	-0.0420079
2653.91	-0.104123
2655.26	0.112835
2656.62	0.330128
2657.97	0.094152
2659.33	-0.0385847
2660.68	-0.0101013
2662.03	0.135181
2663.39	0.236124
2664.74	-0.130631
2666.09	0.159018
2667.44	0.185618
2668.8	0.255823
2670.15	-0.0958295
2671.5	-0.0686054
2672.85	0.235044
2674.2	0.0304823
2675.55	0.0732479
2676.91	-0.391448
2678.26	0.188834
2679.61	0.116831
2680.96	-0.0559664
2682.31	0.148946
2683.66	0.267647
2685	0.140436
2686.35	0.0569639
2687.7	0.0168681
2689.05	0.469629
2690.4	0.0648527
2691.75	0.312193
2693.1	0.123187
2694.44	0.296285
2695.79	0.251728
2697.14	0.280059
2698.49	-0.0817761
2699.83	0.339447
2701.18	0.254964
2702.52	0.200375
2703.87	-0.201375
2705.22	0.0492249
2706.56	-0.120533
2707.91	0.057673
2709.25	0.00351906
2710.6	-0.0508881
2711.94	-0.0183187
2713.29	0.275759
2714.63	0.148455
2715.97	0.195524
2717.32	0.169816
2718.66	0.202142
2720.01	0.277914
2721.35	0.0332613
2722.69	0.00658894
2724.03	-0.122252
2725.38	0.27266
2726.72	0.0560184
2728.06	0.24673
2729.4	0.029808
2730.74	0.191169
2732.08	0.367034
2733.42	0.106518
2734.76	0.151633
2736.1	-0.19583
2737.44	-0.121394
2738.78	-0.250576
2740.12	0.390848
2741.46	0.115819
2742.8	0.116702
2744.14	0.0735703
2745.48	0.277071
2746.82	-0.086174
2748.16	0.131394
2749.49	0.116676
2750.83	0.0730972
2752.17	0.247182
2753.51	0.189416
2754.84	0.146295
2756.18	-0.142927
2757.52	0.0893893
2758.85	0.191469
2760.19	0.206917
2761.53	0.0634928
2762.86	0.455776
2764.2	0.21158
2765.53	0.300171
2766.87	0.258261
2768.2	-0.0156307
2769.54	-0.0587859
2770.87	0.186267
2772.2	0.242461
2773.54	0.196939
2774.87	0.0214334
2776.2	0.148702
2777.54	0.117685
2778.87	-0.0279779
2780.2	-0.0581489
2781.53	-0.116803
2782.87	0.298254
2784.2	0.0817232
2785.53	-0.148854
2786.86	0.0793152
2788.19	0.0212402
2789.52	-0.064909
2790.85	0.021173
2792.18	-0.106801
2793.51	-0.0486097
2794.84	-0.133338
2796.17	0.167563
2797.5	0.110874
2798.83	0.0110607
2800.16	0.0680747
2801.49	0.253268
2802.82	0.038949
2804.15	0.138204
2805.47	0.393747
2806.8	-0.105743
2808.13	0.177333
2809.46	0.0618219
2810.78	0.0885282
2812.11	0.512916
2813.44	0.228388
2814.76	0.171869
2816.09	0.102089
2817.42	0.217256
2818.74	0.30442
2820.07	-0.104489
2821.39	0.322562
2822.72	0.139771
2824.04	0.268368
2825.37	0.240897
2826.69	0.100188
2828.02	0.0731187
2829.34	0.329532
2830.66	0.246449
2831.99	0.135191
2833.31	0.349464
2834.63	0.379517
2835.96	0.3385
2837.28	0.367919
2838.6	0.46779
2839.92	0.213948
2841.24	0.384449
2842.57	0.413777
2843.89	0.344555
2845.21	0.572549
2846.53	0.631317
2847.85	0.464166
2849.17	0.509017
2850.49	0.454755
2851.81	0.795954
2853.13	0.755221
2854.45	0.799055
2855.77	0.461298
2857.09	0.773449
2858.41	0.930171
2859.72	0.93149
2861.04	0.664423
2862.36	0.891364
2863.68	1.16033
2865	0.949261
2866.31	0.992204
2867.63	0.922456
2868.95	1.26189
2870.26	1.38998
2871.58	1.30668
2872.9	1.12458
2874.21	1.63252
2875.53	1.71695
2876.84	1.58945
2878.16	1.68672
2879.47	1.53057
2880.79	1.76835
2882.1	1.45849
2883.42	1.45847
2884.73	1.54325
2886.05	1.30547
2887.36	1.37658
2888.67	1.61577
2889.99	1.33534
2891.3	1.30701
2892.61	1.74086
2893.92	1.40374
2895.24	1.62723
2896.55	1.40311
2897.86	1.75345
2899.17	1.74048
2900.48	1.5461
2901.79	1.58982
2903.11	1.88541
2904.42	1.24391
2905.73	1.84742
2907.04	1.72393
2908.35	1.75474
2909.66	1.80002
2910.97	1.8876
2912.27	2.24115
2913.58	1.78236
2914.89	2.41472
2916.2	2.08005
2917.51	2.37438
2918.82	2.4441
2920.13	2.1081
2921.43	2.59761
2922.74	2.44458
2924.05	2.55798
2925.35	2.63008
2926.66	2.63263
2927.97	2.98467
2929.27	2.86116
2930.58	2.7373
2931.89	2.52927
2933.19	2.71249
2934.5	2.49033
2935.8	2.68752
2937.11	2.60527
2938.41	2.50914
2939.72	2.80442
2941.02	2.83448
2942.32	2.62747
2943.63	2.37918
2944.93	2.39717
2946.24	2.19205
2947.54	2.00106
2948.84	2.24366
2950.14	1.89769
2951.45	1.94265
2952.75	2.16857
2954.05	1.7496
2955.35	2.21243
2956.65	1.96182
2957.95	2.31425
2959.26	1.94032
2960.56	1.90385
2961.86	2.24697
2963.16	2.114
2964.46	2.06467
2965.76	1.91607
2967.06	1.61174
2968.36	1.55947
2969.66	1.92859
2970.96	1.65079
2972.25	1.78098
2973.55	1.64403
2974.85	1.74625
2976.15	1.81994
2977.45	1.21696
2978.74	1.47186
2980.04	1.66933
2981.34	1.4578
2982.64	1.38673
2983.93	1.52677
2985.23	1.48463
2986.52	0.979667
2987.82	1.0798
2989.12	1.09614
2990.41	0.972047
2991.71	0.960045
2993	1.05983
2994.3	1.08853
2995.59	1.08841
2996.89	0.750856
2998.18	0.595871
2999.48	0.960107
3000.77	0.721404
3002.06	0.805544
3003.36	0.651618
3004.65	0.946052
3005.94	0.707942
3007.23	0.735546
3008.53	0.636645
3009.82	0.187729
3011.11	0.465488
3012.4	0.575003
3013.69	0.391347
3014.99	0.194221
3016.28	0.540993
3017.57	0.595355
3018.86	0.385533
3020.15	0.342801
3021.44	0.563859
3022.73	0.547939
3024.02	0.212221
3025.31	0.30638
3026.6	0.358622
3027.89	0.0374084
3029.18	0.49154
3030.46	0.310308
3031.75	0.0610375
3033.04	0.309474
3034.33	0.516448
3035.62	0.433167
3036.9	0.514535
3038.19	0.140026
3039.48	0.315495
3040.76	0.228435
3042.05	0.429212
3043.34	0.410057
3044.62	0.281915
3045.91	0.346405
3047.19	0.179789
3048.48	0.342368
3049.77	0.110212
3051.05	0.0973325
3052.34	0.262233
3053.62	0.30424
3054.9	0.413977
3056.19	0.427483
3057.47	0.453867
3058.76	0.220808
3060.04	0.273716
3061.32	0.285891
3062.61	0.0673375
3063.89	0.543103
3065.17	0.271824
3066.45	0.395587
3067.74	0.560678
3069.02	0.236406
3070.3	0.510228
3071.58	0.253021
3072.86	0.498182
3074.14	0.334535
3075.42	0.156784
3076.7	0.0604157
3077.99	0.276485
3079.26	0.235146
3080.54	0.00473261
3081.82	0.249947
3083.1	-0.14178
3084.38	0.0772743
3085.66	-0.0972271
3086.94	0.0129123
3088.22	0.0954123
3089.5	-0.189033
3090.78	-0.0666628
3092.05	0.218284
3093.33	0.381031
3094.61	0.326823
3095.89	0.232025
3097.16	0.2321
3098.44	-0.12035
3099.72	0.00142241
3100.99	-0.120849
3102.27	0.203771
3103.54	0.176276
3104.82	0.0542555
3106.1	0.338614
3107.37	0.0414834
3108.65	0.0831985
3109.92	0.0983872
3111.2	0.127609
3112.47	0.130112
3113.74	0.159866
3115.02	0.0132842
3116.29	0.218783
3117.56	-0.0781074
3118.84	0.0853515
3120.11	0.00389624
3121.38	-0.0375195
3122.66	-0.0387168
3123.93	0.0275822
3125.2	-0.0415869
3126.47	-0.0293527
3127.74	0.199544
3129.01	0.00921202
3130.29	0.224699
3131.56	0.304821
3132.83	0.0603676
3134.1	0.112876
3135.37	0.0163832
3136.64	0.324237
3137.91	0.105434
3139.18	0.0212913
3140.45	0.0312467
3141.72	0.000733852
3142.99	-0.11031
3144.26	0.154859
3145.52	0.0576468
3146.79	-0.213428
3148.06	0.0921459
3149.33	-0.111216
