200.43	0.863781
202.246	0.882838
204.061	0.902973
205.875	0.656721
207.688	0.508315
209.501	0.724037
211.316	0.112605
213.129	0.762643
214.941	0.343367
216.753	0.40882
218.566	0.0625467
220.377	-0.113154
222.188	0.510608
223.999	0.457788
225.809	0.768201
227.618	0.0397434
229.43	0.446429
231.239	0.779736
233.047	0.292189
234.855	0.191295
236.663	1.03196
238.471	0.332147
240.278	0.141329
242.087	0.459323
243.894	0.561969
245.7	0.0854664
247.506	0.379531
249.311	-0.19846
251.116	-0.200298
252.921	0.494847
254.725	-0.477038
256.529	-0.146456
258.333	0.160553
260.136	0.372765
261.939	0.852031
263.744	0.176886
265.546	0.996654
267.348	0.178354
269.15	0.516449
270.951	0.492142
272.752	0.611215
274.552	0.246521
276.353	0.820236
278.152	-0.0542822
279.952	-0.231749
281.751	0.479375
283.55	0.10514
285.348	0.54687
287.146	0.458811
288.942	0.418849
290.739	0.379789
292.536	-0.304018
294.333	0.210802
296.129	0.00941181
297.925	0.239571
299.721	0.0400896
301.516	0.103286
303.311	-0.168723
305.106	0.226392
306.9	0.190737
308.694	0.369388
310.486	-0.0472212
312.279	1.03827
314.072	0.648722
315.864	0.118501
317.656	0.0188379
319.448	0.635489
321.24	0.419767
323.029	0.80087
324.819	0.228487
326.61	0.180819
328.4	0.180617
330.19	0.538285
331.977	0.344889
333.766	0.699769
335.555	0.43024
337.343	0.517051
339.131	0.314389
340.917	0.468805
342.704	0.574355
344.491	0.751409
346.277	-0.217603
348.062	-0.0868883
349.848	0.0920572
351.633	0.00841236
353.416	0.0673695
355.201	0.769222
356.986	0.348382
358.77	0.21243
360.552	0.0991697
362.335	0.437174
364.118	0.70246
365.899	-0.0313272
367.682	0.374617
369.464	0.446846
371.243	0.423192
373.025	-0.0270901
374.806	0.0195007
376.585	-0.0284014
378.365	0.419519
380.143	0.655508
381.923	0.139179
383.702	0.377717
385.479	0.335281
387.258	0.435235
389.034	0.301445
390.812	-0.723681
392.59	0.224978
394.365	0.58709
396.142	0.47995
397.916	0.725195
399.693	0.500526
401.467	0.345806
403.242	0.0964403
405.015	0.480385
406.79	0.839921
408.565	0.189075
410.337	-0.0628586
412.111	0.272037
413.882	0.231812
415.656	0.403535
417.426	-0.104342
419.197	-0.259616
420.969	0.453757
422.739	-0.593497
424.51	0.635487
426.279	0.713198
428.05	-0.454227
429.819	-0.284062
431.589	0.120725
433.356	-0.248723
435.124	0.13321
436.893	-0.235908
438.66	0.239128
440.428	-0.0618448
442.194	0.667261
443.96	0.314845
445.727	0.68699
447.492	0.425183
449.259	-0.281023
451.023	0.299081
452.787	-0.101908
454.553	0.477646
456.316	0.333741
458.079	0.678946
459.844	0.046298
461.606	-0.0731297
463.368	-0.214037
465.132	0.43766
466.893	-0.34825
468.654	0.774341
470.415	0.179159
472.177	0.607881
473.937	0.174821
475.696	-0.00435829
477.456	1.09524
479.217	0.236047
480.975	0.656879
482.733	0.239319
484.491	0.149096
486.251	0.224006
488.008	0.48777
489.765	0.754154
491.522	0.205133
493.278	-0.0169983
495.036	0.602606
496.791	0.474193
498.546	0.345212
500.301	0.403095
502.056	0.155238
503.81	0.28183
505.566	0.994928
507.319	0.860682
509.073	0.748059
510.825	-0.00177193
512.578	0.917185
514.33	0.752031
516.082	0.938211
517.833	-0.0529795
519.587	0.765525
521.337	0.830544
523.088	0.237377
524.838	-0.0737629
526.588	0.154937
528.337	0.66477
530.087	0.00222206
531.835	0.721817
533.584	0.292706
535.332	0.915428
537.08	0.0866003
538.827	1.10214
540.574	0.528342
542.321	0.630414
544.068	0.545666
545.814	0.321644
547.56	0.469678
549.305	0.988543
551.05	0.325522
552.795	-0.0120106
554.54	0.367675
556.284	0.308283
558.027	0.503088
559.771	0.352487
561.514	0.340884
563.257	0.0539188
564.999	0.319654
566.742	0.0803843
568.481	0.0259342
570.223	0.615203
571.964	-0.010293
573.705	-0.473205
575.445	0.442171
577.185	-0.108852
578.925	-0.0160427
580.665	0.537038
582.402	0.26356
584.141	-0.125709
585.879	0.0815678
587.617	0.333611
589.355	-0.26687
591.092	0.0748682
592.828	0.300988
594.564	-0.0942879
596.301	0.292716
598.037	-0.263599
599.773	-0.337141
601.506	0.0715351
603.242	0.0417299
604.976	-0.173561
606.711	0.483076
608.443	0.0357847
610.177	0.0248861
611.91	0.243872
613.644	-0.316035
615.374	0.569137
617.107	-0.172802
618.839	0.665496
620.569	0.128412
622.3	0.23108
624.032	0.126893
625.761	0.319793
627.491	0.330932
629.221	0.230116
630.949	0.428594
632.679	0.195794
634.408	0.238028
636.135	0.371271
637.863	0.822228
639.592	0.197368
641.318	-0.202151
643.045	0.444561
644.77	-0.00416946
646.497	0.23061
648.224	0.353378
649.948	0.343147
651.674	0.246282
653.398	-0.0963545
655.123	0.360379
656.846	0.547234
658.57	0.576044
660.293	0.0796738
662.017	-0.373646
663.738	0.701087
665.462	0.813981
667.185	0.535964
668.905	1.01169
670.628	0.710562
672.348	0.594532
674.067	0.38953
675.789	0.0949354
677.508	0.443601
679.228	0.402736
680.947	0.153824
682.667	0.937856
684.385	0.408342
686.104	0.797203
687.821	0.332261
689.538	0.879484
691.256	0.389328
692.972	0.497374
694.69	0.788817
696.406	0.526391
698.121	0.861293
699.837	0.251051
701.552	0.721044
703.268	1.02849
704.982	0.576775
706.695	0.630017
708.41	0.911995
710.123	1.28473
711.836	0.580421
713.55	1.20359
715.262	1.02558
716.973	0.0715427
718.685	1.19514
720.398	0.561987
722.108	1.11426
723.818	1.52914
725.53	0.556422
727.24	1.03873
728.949	0.793528
730.658	1.25105
732.369	0.778645
734.077	1.52872
735.785	1.14721
737.493	1.85072
739.2	1.20012
740.909	1.25053
742.616	1.45996
744.322	1.15291
746.028	0.960311
747.734	1.87178
749.441	1.43485
751.146	1.65182
752.851	1.44297
754.555	0.808213
756.26	0.894937
757.963	1.14107
759.667	1.4342
761.372	1.45849
763.075	0.851701
764.777	0.4921
766.479	1.37352
768.181	2.02779
769.883	1.97898
771.584	1.70156
773.285	2.0782
774.986	1.91153
776.686	1.79072
778.386	1.78446
780.085	1.75737
781.785	1.50537
783.484	1.97762
785.182	2.06402
786.881	2.14769
788.579	2.0239
790.276	1.76058
791.974	2.14984
793.671	1.38487
795.367	1.27518
797.064	1.14413
798.76	2.00605
800.456	1.65353
802.151	1.73051
803.846	1.17854
805.541	1.52606
807.236	1.82742
808.93	1.54322
810.624	2.51473
812.317	2.16066
814.01	1.67201
815.703	1.96741
817.394	1.38992
819.086	2.0203
820.778	2.2702
822.47	1.89539
824.161	1.87881
825.852	1.52965
827.543	1.45054
829.231	1.55274
830.921	1.45795
832.611	2.0793
834.3	1.99041
835.989	1.5681
837.676	1.54681
839.364	1.65818
841.053	1.83483
842.74	1.85362
844.426	1.62599
846.113	1.39902
847.8	1.41984
849.486	1.33158
851.171	1.3356
852.857	1.85737
854.542	1.8204
856.227	1.37888
857.911	1.24999
859.595	1.20903
861.279	2.15668
862.961	1.03088
864.645	0.984385
866.329	1.07208
868.01	1.2042
869.692	1.3133
871.375	1.55741
873.055	1.01175
874.737	1.14275
876.418	1.4769
878.097	0.885793
879.778	0.587869
881.457	1.37309
883.137	0.645027
884.817	1.11222
886.495	1.28432
888.174	1.40938
889.851	1.23934
891.53	0.70717
893.206	0.782298
894.884	1.5535
896.562	1.3779
898.237	0.70744
899.914	0.867317
901.589	1.27238
903.265	1.11635
904.94	0.468837
906.615	1.07312
908.289	1.65437
909.964	1.01048
911.637	0.813951
913.31	0.15188
914.984	0.734863
916.656	1.16156
918.33	1.91979
920.001	1.28183
921.674	0.955349
923.345	1.24964
925.015	1.34657
926.687	0.716922
928.357	1.08294
930.028	1.33986
931.698	0.935613
933.366	1.67894
935.037	0.701813
936.705	1.15897
938.373	0.712829
940.043	0.488579
941.71	0.574471
943.379	0.815696
945.046	0.836194
946.712	0.347743
948.378	0.673982
950.046	0.931791
951.711	0.482066
953.376	0.826636
955.043	1.19481
956.708	0.59585
958.372	-0.0659046
960.036	0.554916
961.701	-0.0365267
963.364	0.498421
965.027	0.943758
966.69	0.302358
968.354	0.409906
970.016	0.382363
971.678	0.906796
973.339	0.900768
975	1.67037
976.661	1.00469
978.324	0.849339
979.984	0.705766
981.644	0.5617
983.303	0.227916
984.962	1.35303
986.621	1.25811
988.282	1.33807
989.94	1.01842
991.598	1.02983
993.256	0.952664
994.913	0.721176
996.57	1.24019
998.227	0.832529
999.884	1.15227
1001.54	0.634327
1003.2	1.65705
1004.85	0.830698
1006.51	1.10414
1008.16	0.542872
1009.82	0.202205
1011.47	0.958972
1013.12	0.838668
1014.78	1.70462
1016.43	0.928246
1018.08	1.00664
1019.74	0.889061
1021.39	0.16062
1023.04	0.876475
1024.69	0.413039
1026.34	1.32709
1028	0.820762
1029.65	0.423094
1031.3	0.810478
1032.95	0.71547
1034.6	0.269556
1036.25	0.716553
1037.9	0.464802
1039.55	0.757515
1041.19	0.833019
1042.84	0.388253
1044.49	0.923656
1046.14	1.48266
1047.79	0.91446
1049.43	0.543748
1051.08	1.06499
1052.73	1.30497
1054.37	1.21958
1056.02	1.54712
1057.66	1.00491
1059.31	0.00534248
1060.95	1.37496
1062.6	1.09119
1064.24	0.65414
1065.88	-0.197062
1067.53	0.841747
1069.17	0.531764
1070.81	0.87275
1072.46	0.540369
1074.1	-0.00816154
1075.74	0.377553
1077.38	0.569399
1079.02	0.654226
1080.66	0.30627
1082.3	0.955814
1083.94	0.802031
1085.58	1.21002
1087.22	0.618571
1088.86	0.30684
1090.5	0.361382
1092.14	1.08456
1093.78	0.531601
1095.42	0.540862
1097.05	0.227695
1098.69	0.153514
1100.33	0.102942
1101.97	0.786182
1103.6	0.567548
1105.24	0.458101
1106.87	0.220328
1108.51	0.54143
1110.15	0.259174
1111.78	-0.0246792
1113.41	0.377316
1115.05	0.176319
1116.68	0.661371
1118.31	1.06012
1119.95	-0.0833817
1121.58	0.873991
1123.21	0.269286
1124.85	0.500626
1126.48	0.155334
1128.11	-0.146124
1129.74	0.451335
1131.37	0.514847
1133	0.215297
1134.63	0.321802
1136.26	0.320709
1137.89	0.339805
1139.52	0.720624
1141.15	0.0324421
1142.78	0.325935
1144.41	-0.0632324
1146.04	-0.110166
1147.66	0.142362
1149.29	-0.179504
1150.92	-0.287643
1152.55	-0.0975771
1154.17	0.177183
1155.8	0.259788
1157.43	-0.147154
1159.05	0.318605
1160.68	0.487396
1162.3	0.0620928
1163.93	-0.128115
1165.55	0.468961
1167.17	0.300348
1168.8	-0.273374
1170.42	0.384014
1172.05	1.12366
1173.67	0.459072
1175.29	-0.100013
1176.91	0.146722
1178.54	-0.0515442
1180.16	0.428614
1181.78	0.0841675
1183.4	-0.111092
1185.02	0.0954084
1186.64	-0.0372305
1188.26	0.820149
1189.88	0.0927916
1191.5	0.143804
1193.12	-0.0803661
1194.74	-0.220883
1196.36	0.330881
1197.97	0.379686
1199.59	0.26306
1201.21	0.00313759
1202.83	0.331274
1204.44	0.45335
1206.06	-0.256729
1207.68	-0.214015
1209.29	0.0167704
1210.91	0.0380621
1212.52	-0.255268
1214.14	0.532791
1215.75	0.692554
1217.37	0.350643
1218.98	0.0705557
1220.6	0.413651
1222.21	0.300591
1223.82	0.127009
1225.44	0.452337
1227.05	0.323757
1228.66	0.858786
1230.27	0.940021
1231.88	0.877955
1233.49	0.445331
1235.1	0.61357
1236.72	0.576534
1238.33	1.11954
1239.94	0.712397
1241.55	1.52563
1243.16	1.38721
1244.76	1.41334
1246.37	1.16923
1247.98	0.84113
1249.59	0.263906
1251.2	1.32076
1252.8	1.44679
1254.41	1.32547
1256.02	1.06067
1257.63	0.859345
1259.23	1.34218
1260.84	1.88849
1262.44	1.19335
1264.05	1.3885
1265.66	1.68693
1267.26	0.948241
1268.87	1.5557
1270.47	1.2705
1272.07	1.68897
1273.68	2.56223
1275.28	1.50622
1276.88	0.926189
1278.48	1.69202
1280.09	2.31154
1281.69	1.56415
1283.29	1.99674
1284.89	1.23024
1286.49	1.51967
1288.09	1.47952
1289.69	2.1018
1291.3	2.27001
1292.9	2.0662
1294.49	1.53099
1296.09	1.77927
1297.69	1.48868
1299.29	2.26917
1300.89	1.17064
1302.49	1.2877
1304.09	1.77382
1305.68	1.39463
1307.28	1.96033
1308.88	2.52444
1310.47	2.0422
1312.07	2.03229
1313.66	2.06425
1315.26	1.44352
1316.86	1.86627
1318.45	1.12618
1320.05	1.81414
1321.64	2.2351
1323.23	1.98184
1324.83	2.17412
1326.42	1.67393
1328.01	1.33654
1329.61	1.34484
1331.2	1.31456
1332.79	2.39827
1334.38	1.34287
1335.98	1.38049
1337.57	1.76162
1339.16	1.39578
1340.75	1.83412
1342.34	1.34346
1343.93	0.811233
1345.52	1.40322
1347.11	1.1918
1348.7	1.24322
1350.29	1.0573
1351.87	1.77472
1353.46	1.29439
1355.05	0.995884
1356.64	1.47731
1358.23	0.599579
1359.81	1.13916
1361.4	0.898611
1362.99	0.477802
1364.57	0.83457
1366.16	0.852477
1367.74	0.572573
1369.33	0.373918
1370.91	0.853602
1372.5	0.877052
1374.08	0.663038
1375.67	0.967164
1377.25	0.714278
1378.83	0.938401
1380.42	1.43989
1382	1.08426
1383.58	1.4034
1385.16	0.886244
1386.75	0.66703
1388.33	0.904918
1389.91	0.627274
1391.49	1.00568
1393.07	0.63097
1394.65	1.07007
1396.23	0.913907
1397.81	0.994888
1399.39	0.856678
1400.97	0.61845
1402.55	1.3893
1404.13	1.11073
1405.7	0.951704
1407.28	1.01124
1408.86	0.518519
1410.44	1.25136
1412.01	0.877922
1413.59	0.800152
1415.17	1.03709
1416.74	0.622025
1418.32	1.25155
1419.89	0.935211
1421.47	0.974833
1423.05	1.3509
1424.62	1.43356
1426.19	1.43902
1427.77	1.20897
1429.34	1.68719
1430.92	1.02276
1432.49	1.81334
1434.06	1.16625
1435.63	1.20733
1437.2	1.44521
1438.78	2.018
1440.35	2.4739
1441.92	2.65582
1443.49	1.65947
1445.06	2.37344
1446.63	1.82977
1448.2	1.60072
1449.77	1.80446
1451.34	2.48073
1452.91	2.07627
1454.48	2.20322
1456.05	2.60567
1457.62	2.63356
1459.18	1.99071
1460.75	2.60521
1462.32	1.58418
1463.89	1.9581
1465.45	1.50481
1467.02	2.13196
1468.59	1.2471
1470.15	1.3061
1471.72	1.30754
1473.28	1.99668
1474.85	1.11778
1476.41	0.867059
1477.98	1.45952
1479.54	0.816837
1481.11	0.742588
1482.67	0.766247
1484.23	0.691772
1485.8	0.812835
1487.36	0.658777
1488.92	1.01234
1490.48	0.874264
1492.05	1.28126
1493.61	0.630199
1495.17	1.1295
1496.73	0.398758
1498.29	0.700928
1499.85	0.0117626
1501.41	0.3737
1502.97	0.387107
1504.53	0.45963
1506.09	0.280678
1507.65	0.584869
1509.2	0.713398
1510.76	0.338618
1512.32	0.618975
1513.88	0.166809
1515.44	0.158075
1516.99	0.380402
1518.55	0.123672
1520.1	-0.170108
1521.66	0.378896
1523.22	0.372066
1524.77	0.708015
1526.33	0.355565
1527.88	0.345727
1529.44	0.297259
1530.99	0.64761
1532.55	0.997569
1534.1	0.609106
1535.65	0.506495
1537.21	0.442996
1538.76	0.720166
1540.31	0.60125
1541.86	0.614555
1543.42	0.721815
1544.97	0.603023
1546.52	0.972561
1548.07	0.947116
1549.62	1.33404
1551.17	0.915236
1552.72	1.78859
1554.27	1.87651
1555.82	1.01352
1557.37	1.66564
1558.92	1.05075
1560.47	1.11002
1562.02	1.26444
1563.57	1.17767
1565.11	1.46475
1566.66	1.24817
1568.21	1.53519
1569.75	1.78448
1571.3	2.35066
1572.85	1.90848
1574.39	2.04479
1575.94	2.01311
1577.49	1.53365
1579.03	2.06278
1580.58	2.20067
1582.12	1.59253
1583.67	1.90048
1585.21	1.94791
1586.75	1.52857
1588.3	2.15649
1589.84	2.37302
1591.38	1.80297
1592.93	1.88733
1594.47	2.13993
1596.01	1.73696
1597.55	1.91523
1599.09	1.58817
1600.63	2.06829
1602.18	2.21162
1603.72	1.22838
1605.26	2.04696
1606.8	1.69935
1608.34	1.34927
1609.87	1.56032
1611.41	1.71219
1612.95	1.3733
1614.49	1.40861
1616.03	2.02476
1617.57	1.40355
1619.11	1.4963
1620.64	0.841589
1622.18	1.31222
1623.72	2.06446
1625.25	1.61856
1626.79	1.47135
1628.32	1.77172
1629.86	1.41568
1631.4	1.37649
1632.93	1.59833
1634.47	1.68958
1636	2.26677
1637.53	2.28507
1639.07	1.98721
1640.6	1.65233
1642.14	1.87587
1643.67	2.26548
1645.2	1.68551
1646.73	2.27671
1648.27	2.21629
1649.8	2.04499
1651.33	1.94932
1652.86	2.76407
1654.39	1.87381
1655.92	2.00436
1657.45	2.46827
1658.98	2.02335
1660.51	2.28072
1662.04	2.59149
1663.57	2.86338
1665.1	2.46915
1666.63	2.31589
1668.16	2.27483
1669.69	2.23564
1671.21	1.84824
1672.74	1.81241
1674.27	1.48252
1675.79	1.6128
1677.32	1.65005
1678.85	1.48364
1680.37	1.42646
1681.9	1.31331
1683.42	1.05301
1684.95	1.38031
1686.47	1.24913
1688	0.971973
1689.52	0.933712
1691.05	0.932382
1692.57	0.656635
1694.1	0.563995
1695.62	0.800327
1697.14	0.524502
1698.66	0.668605
1700.19	0.301045
1701.71	0.115765
1703.23	0.786662
1704.75	0.563608
1706.27	0.21302
1707.79	0.317187
1709.32	-0.232825
1710.83	0.252616
1712.35	0.392895
1713.88	0.0439281
1715.39	0.383509
1716.91	0.577744
1718.43	0.410046
1719.95	-0.0463858
1721.47	0.490454
1722.99	0.396041
1724.5	-0.057477
1726.02	0.427303
1727.54	0.0670996
1729.06	-0.07586
1730.57	0.126394
1732.09	-0.115029
1733.61	-0.125969
1735.12	0.602569
1736.64	0.300841
1738.15	0.17253
1739.67	0.35793
1741.18	0.829078
1742.7	0.449894
1744.21	0.873569
1745.72	0.0641613
1747.24	0.0347433
1748.75	0.253226
1750.26	-0.320538
1751.78	-0.0879297
1753.29	0.0364075
1754.8	0.375682
1756.31	-0.0184145
1757.82	0.393177
1759.34	0.0640116
1760.85	0.0747862
1762.36	0.141305
1763.87	0.445485
1765.38	0.231136
1766.89	0.191608
1768.4	0.186497
1769.91	0.0847435
1771.41	-0.247204
1772.92	-0.039999
1774.43	-0.373133
1775.94	0.259154
1777.45	0.0592432
1778.96	0.0464497
1780.46	0.0916967
1781.97	-0.10269
1783.48	0.202481
1784.98	0.206869
1786.49	-0.0494566
1788	0.00777149
1789.5	0.0221052
1791.01	0.233627
1792.51	0.243179
1794.01	0.110935
1795.52	0.361415
1797.02	-0.0126896
1798.53	0.106977
1800.03	0.0499783
1801.54	0.021616
1803.04	0.250881
1804.54	0.18055
1806.04	-0.0533171
1807.54	-0.1405
1809.05	0.47497
1810.55	0.0731153
1812.05	0.353089
1813.55	0.175096
1815.05	0.0138092
1816.55	0.274406
1818.05	0.136221
1819.55	0.29
1821.05	0.0562696
1822.55	0.00445271
1824.05	0.130527
1825.55	-0.109379
1827.05	-0.168154
1828.55	0.0542192
1830.04	0.11603
1831.54	0.103771
1833.04	0.326244
1834.54	-0.340391
1836.03	0.185107
1837.53	-0.068943
1839.03	-0.0627871
1840.52	0.00747204
1842.02	0.125988
1843.51	-0.0440407
1845.01	0.131884
1846.5	-0.307463
1848	0.0310926
1849.49	-0.0534582
1850.99	0.171353
1852.48	-0.0682173
1853.97	0.0231352
1855.47	0.285745
1856.96	0.366305
1858.45	-0.21188
1859.94	-0.256785
1861.44	0.322876
1862.93	-0.0162535
1864.42	-0.000105858
1865.91	-0.14144
1867.4	0.425931
1868.89	0.0870218
1870.38	-0.188368
1871.87	0.172563
1873.36	0.0367527
1874.85	-0.161146
1876.34	0.14374
1877.83	-0.151977
1879.32	-0.265071
1880.81	0.218418
1882.3	-0.104018
1882.56	-0.196914
1884.06	-0.0930538
1885.55	-0.547705
1887.04	-0.097126
1888.54	0.352468
1890.03	0.36684
1891.52	0.486612
1893.02	0.29509
1894.51	0.279413
1896	0.108867
1897.49	-0.0261126
1898.99	0.186615
1900.48	0.0677691
1901.97	-0.000595093
1903.46	0.277041
1904.95	0.69201
1906.44	0.0632753
1907.93	-0.0786095
1909.42	0.387765
1910.91	0.316881
1912.4	0.0735207
1913.89	0.0389576
1915.38	-0.186262
1916.86	0.160363
1918.35	0.17694
1919.84	0.348968
1921.33	0.624712
1922.82	-0.415255
1924.3	0.710197
1925.79	0.45171
1927.28	-0.359635
1928.76	0.0934563
1930.25	0.442692
1931.74	0.236937
1933.22	0.704935
1934.71	-0.0235958
1936.19	0.613502
1937.67	0.228478
1939.16	0.309987
1940.64	0.42624
1942.13	-0.0607386
1943.61	0.264577
1945.09	0.383612
1946.58	0.106458
1948.06	0.104943
1949.54	0.102638
1951.03	0.0820665
1952.51	0.129382
1953.99	0.0900583
1955.47	0.0678883
1956.95	0.235044
1958.43	0.557178
1959.91	-0.0808601
1961.39	-0.0490532
1962.87	-0.222761
1964.35	0.511497
1965.83	0.439682
1967.31	0.28161
1968.79	0.584833
1970.27	-0.36073
1971.75	-0.280433
1973.22	0.499456
1974.7	-0.410169
1976.18	0.16445
1977.66	-0.11315
1979.13	0.545856
1980.61	0.574591
1982.09	0.620079
1983.56	0.121628
1985.04	0.0139151
1986.52	0.0248213
1987.99	0.205156
1989.47	0.267005
1990.94	0.278714
1992.41	-0.148332
1993.89	0.237515
1995.36	0.0324335
1996.84	-0.273433
1998.31	-0.156958
1999.78	0.414794
2001.26	-0.0608015
2002.73	0.357439
2004.2	0.65711
2005.67	0.266026
2007.15	0.684534
2008.62	0.346069
2010.09	0.278045
2011.56	0.564081
2013.03	0.345147
2014.5	0.294088
2015.97	0.00668335
2017.44	-0.298312
2018.91	0.455161
2020.38	0.283223
2021.85	0.34641
2023.32	-0.00973415
2024.79	0.323154
2026.25	0.589987
2027.72	0.589936
2029.19	-0.180049
2030.66	0.611303
2032.13	0.464335
2033.59	0.149895
2035.06	0.255031
2036.53	0.494216
2037.99	0.346473
2039.46	0.567987
2040.92	0.78953
2042.39	0.557607
2043.85	0.107706
2045.32	0.365139
2046.78	0.337403
2048.25	0.208872
2049.71	0.383215
2051.18	0.185669
2052.64	0.59349
2054.1	0.645256
2055.56	0.560205
2057.03	0.507421
2058.49	0.420119
2059.95	0.92225
2061.42	0.532075
2062.88	0.85
2064.34	0.327414
2065.8	0.125743
2067.26	0.732747
2068.72	0.145465
2070.18	-0.0713081
2071.64	0.705209
2073.1	0.454667
2074.56	0.119583
2076.02	0.322982
2077.48	0.694399
2078.94	0.745413
2080.39	0.0718508
2081.85	0.424859
2083.31	0.726524
2084.77	0.724322
2086.22	0.368063
2087.68	1.20521
2089.14	0.881511
2090.6	1.17939
2092.05	1.34256
2093.51	0.86783
2094.96	1.29889
2096.42	0.974669
2097.87	0.985086
2099.33	0.877634
2100.78	1.35528
2102.24	0.813165
2103.69	1.29134
2105.15	1.03608
2106.6	1.29976
2108.05	1.51444
2109.51	1.47925
2110.96	1.19337
2112.41	1.40607
2113.86	1.117
2115.32	1.2425
2116.77	1.11743
2118.22	1.49124
2119.67	1.2685
2121.12	1.59568
2122.57	1.52682
2124.02	1.39334
2125.47	1.72487
2126.92	2.23839
2128.37	1.62331
2129.82	1.40464
2131.27	1.31718
2132.72	1.64271
2134.17	1.73624
2135.62	2.34317
2137.06	1.77788
2138.51	2.12399
2139.96	2.55498
2141.41	2.17812
2142.85	1.70324
2144.3	2.2048
2145.75	2.74004
2147.19	2.59648
2148.64	2.68388
2150.09	2.60457
2151.53	2.75594
2152.97	2.64097
2154.42	2.80663
2155.86	2.30903
2157.31	2.62331
2158.75	2.8225
2160.2	3.02339
2161.64	2.97803
2163.08	3.54843
2164.53	2.94358
2165.97	2.98645
2167.41	2.59724
2168.86	2.87119
2170.3	2.39471
2171.74	2.98005
2173.18	3.16378
2174.62	2.73029
2176.06	3.16099
2177.5	2.81033
2178.94	2.80986
2180.38	2.76074
2181.82	2.67944
2183.26	2.89817
2184.7	2.68487
2186.14	2.28857
2187.58	2.59099
2189.02	2.11138
2190.46	2.38061
2191.89	2.48311
2193.33	3.00096
2194.77	2.43492
2196.21	1.95004
2197.64	2.67768
2199.08	2.58766
2200.52	1.94821
2201.95	2.35547
2203.39	2.68
2204.83	2.80653
2206.26	2.33759
2207.7	2.01879
2209.13	2.08088
2210.57	2.24126
2212	1.85439
2213.43	2.244
2214.87	1.82358
2216.3	1.58602
2217.73	2.04295
2219.17	1.79184
2220.6	1.67379
2222.03	1.77019
2223.47	1.22316
2224.9	1.69593
2226.33	1.32692
2227.76	1.38404
2229.19	0.799082
2230.62	1.36285
2232.05	1.44992
2233.49	1.35707
2234.91	1.13448
2236.34	1.61612
2237.77	1.03772
2239.2	1.04955
2240.63	0.851553
2242.06	1.03073
2243.49	0.901366
2244.92	1.09859
2246.35	0.805719
2247.78	0.462238
2249.2	0.703524
2250.63	1.13762
2252.06	1.0645
2253.48	0.69788
2254.91	0.933404
2256.34	1.12145
2257.76	0.662902
2259.19	1.03514
2260.61	0.745398
2262.04	0.815252
2263.46	0.643282
2264.89	0.910201
2266.31	0.99814
2267.74	0.532152
2269.16	0.992414
2270.59	0.719538
2272.01	0.804192
2273.43	1.01899
2274.85	0.777854
2276.28	0.520542
2277.7	0.507763
2279.12	0.364621
2280.54	0.498555
2281.97	0.942329
2283.39	0.178928
2284.81	0.639112
2286.23	0.446846
2287.65	0.581428
2289.07	0.112218
2290.49	0.411073
2291.91	0.530655
2293.33	0.683172
2294.75	0.623095
2296.17	0.415554
2297.59	0.158653
2299.01	0.50775
2300.42	0.627897
2301.84	0.289328
2303.26	0.377286
2304.68	0.170032
2306.1	0.093874
2307.51	-0.0155926
2308.93	0.548253
2310.35	0.404803
2311.76	-0.00235081
2313.18	0.264842
2314.59	0.252827
2316.01	0.29098
2317.43	0.37942
2318.84	0.369519
2320.26	0.359341
2321.67	0.265459
2323.08	0.0539913
2324.5	0.0711317
2325.91	0.894341
2327.33	0.329879
2328.74	0.968291
2330.15	1.11208
2331.56	0.203096
2332.98	0.267023
2334.39	0.216635
2335.8	-0.113142
2337.21	0.263947
2338.62	0.0150394
2340.04	0.405994
2341.45	0.28643
2342.86	0.150086
2344.27	-0.330493
2345.68	-0.105443
2347.09	0.0868616
2348.5	0.786389
2349.91	-0.298441
2351.31	-0.271008
2352.72	-0.0323019
2354.13	0.319209
2355.54	-0.341268
2356.95	0.187887
2358.36	0.260487
2359.76	-0.398055
2361.17	0.259501
2362.58	0.186087
2363.98	0.0479374
2365.39	0.362995
2366.8	-0.340529
2368.21	0.0558338
2369.61	-0.0474987
2371.02	-0.0042305
2372.42	0.120916
2373.83	-0.219991
2375.23	-0.077342
2376.64	0.0165167
2378.04	0.221705
2379.44	0.312495
2380.85	0.481601
2382.25	0.504514
2383.66	-0.146232
2385.06	-0.171811
2386.46	-0.268788
2387.86	-0.364635
2389.26	0.154746
2390.67	0.244412
2392.07	0.0804796
2393.47	0.140567
2394.87	0.0424271
2396.27	0.0246019
2397.67	-0.0402279
2399.07	0.0703583
2400.47	0.483253
2401.87	0.45161
2403.27	0.102401
2404.67	-0.024786
2406.07	-0.184565
2407.47	0.0673704
2408.87	0.254827
2410.27	0.0613327
2411.67	0.12177
2413.07	-0.0228443
2414.46	0.0397902
2415.86	0.62636
2417.26	0.422804
2418.66	0.410201
2420.05	0.698893
2421.45	0.148025
2422.84	0.198623
2424.24	0.0905056
2425.64	0.267677
2427.03	0.302823
2428.43	-0.311071
2429.82	0.328514
2431.22	0.334709
2432.61	0.325181
2434.01	0.58507
2435.4	0.621492
2436.79	0.529171
2438.19	0.0538664
2439.58	0.196837
2440.97	0.529337
2442.37	0.0832024
2443.76	0.335299
2445.15	0.539419
2446.54	0.188302
2447.93	0.550477
2449.33	-0.243999
2450.72	-0.11921
2452.11	-0.0572701
2453.5	-0.121137
2454.89	-0.0100641
2456.28	0.117522
2457.67	0.0872469
2459.06	0.0884409
2460.45	0.294615
2461.84	0.215254
2463.23	0.419597
2464.62	0.228189
2466	-0.468717
2467.39	0.129283
2468.78	0.300692
2470.17	0.172085
2471.55	0.358372
2472.94	0.338919
2474.33	-0.185069
2475.72	-0.44154
2477.1	-0.336473
2478.49	0.490768
2479.87	0.187077
2481.26	0.00948334
2482.65	0.129773
2484.03	0.311984
2485.42	0.27397
2486.8	-0.171371
2488.19	0.210176
2489.57	0.714665
2490.95	-0.151871
2492.34	0.227869
2493.72	-0.106352
2495.1	-0.12825
2496.49	-0.07131
2497.87	0.31169
2499.25	0.168188
2500.63	-0.300278
2502.02	-0.289735
2503.4	0.337416
2504.78	0.515075
2506.16	0.152423
2507.54	0.221254
2508.92	-0.232603
2510.3	0.159595
2511.68	-0.0466433
2513.06	0.100885
2514.44	-0.0725594
2515.82	-0.214226
2517.2	-0.309023
2518.58	0.30011
2519.96	0.175323
2521.34	-0.224515
2522.72	0.214908
2524.1	0.0122633
2525.47	-0.129852
2526.85	-0.134948
2528.23	0.134282
2529.6	0.297879
2530.98	-0.0233364
2532.36	0.645093
2533.74	-0.0677528
2535.11	-0.323992
2536.49	-0.215651
2537.86	-0.032053
2539.24	-0.0924978
2540.61	0.0284348
2541.99	-0.169794
2543.36	0.224139
2544.74	0.194057
2546.11	-0.30489
2547.49	0.031703
2548.86	0.566497
2550.23	-0.142748
2551.61	0.0730457
2552.98	0.01474
2554.35	0.0160713
2555.72	-0.120061
2557.09	-0.317351
2558.47	0.334488
2559.84	0.0767279
2561.21	0.18341
2562.58	0.184667
2563.95	0.247169
2565.32	-0.114174
2566.69	-0.354034
2568.06	0.0427094
2569.43	0.363728
2570.8	0.230091
2572.17	0.187442
2573.54	-0.158289
2574.91	0.16307
2576.28	0.0903358
2577.65	0.608846
2579.02	-0.192002
2580.39	-0.0228014
2581.75	0.34309
2583.12	0.102096
2584.49	0.300545
2585.85	0.301855
2587.22	0.272993
2588.59	0.350438
2589.95	0.0794468
2591.32	0.202353
2592.68	0.385349
2594.05	-0.114256
2595.42	0.00624084
2596.78	-0.162003
2598.15	0.017067
2599.51	-0.0614576
2600.88	0.101995
2602.24	0.190302
2603.6	0.0377264
2604.97	0.278195
2606.33	0.428194
2607.69	-0.477764
2609.06	0.0932112
2610.42	0.135128
2611.78	0.175601
2613.14	0.169681
2614.51	-0.00226402
2615.87	0.291059
2617.23	0.389182
2618.59	0.128362
2619.95	-0.0413761
2621.31	0.118874
2622.67	0.369104
2624.03	0.111566
2625.39	0.0632238
2626.75	-0.253715
2628.11	0.249012
2629.47	0.169992
2630.83	-0.117397
2632.19	-0.136853
2633.55	-0.230585
2634.91	-0.101555
2636.26	0.0717335
2637.62	-0.303514
2638.98	0.195453
2640.34	0.220395
2641.69	-0.0500793
2643.05	0.0937777
2644.41	-0.0133495
2645.76	-0.135151
2647.12	-0.0213261
2648.48	-0.0704107
2649.83	0.232931
2651.19	-0.0530519
2652.54	0.233978
2653.9	-0.198176
2655.25	0.148108
2656.6	0.46569
2657.96	-0.108724
2659.31	0.00600052
2660.67	0.267245
2662.02	-0.217241
2663.37	-0.132181
2664.73	0.068717
2666.08	0.137292
2667.43	0.00125027
2668.78	-0.00359631
2670.14	0.253761
2671.49	0.409538
2672.84	-0.204285
2674.19	-0.279423
2675.54	0.0525103
2676.89	0.181632
2678.24	0.499906
2679.59	0.0359354
2680.94	0.167652
2682.29	0.0831509
2683.64	0.362408
2684.99	0.120643
2686.34	0.0388203
2687.69	0.116417
2689.04	-0.155595
2690.39	0.456193
2691.74	-0.458075
2693.08	-0.0240011
2694.43	-0.214812
2695.78	0.0581779
2697.13	-0.175442
2698.47	-0.0600119
2699.82	-0.102178
2701.17	-0.0991287
2702.51	0.253094
2703.86	0.635647
2705.21	0.279725
2706.55	0.054059
2707.9	0.263256
2709.24	0.00766945
2710.58	0.143598
2711.93	0.395569
2713.27	0.0517731
2714.62	-0.0742645
2715.96	-0.0259514
2717.3	0.0513344
2718.65	0.404821
2719.99	0.190589
2721.33	0.412411
2722.68	0.284461
2724.02	0.519887
2725.36	0.40553
2726.71	0.465439
2728.05	0.990722
2729.39	0.0458746
2730.73	0.39609
2732.07	0.207896
2733.41	0.325332
2734.75	0.181116
2736.09	0.313488
2737.43	0.402359
2738.77	0.592999
2740.11	-0.0455399
2741.45	0.420611
2742.79	0.231757
2744.13	-0.262914
2745.47	0.578648
2746.81	0.199308
2748.14	0.0813742
2749.48	0.485912
2750.82	0.266712
2752.16	-0.169511
2753.49	0.510749
2754.83	0.437376
2756.17	0.016593
2757.5	0.20437
2758.84	-0.128807
2760.18	0.320106
2761.51	0.00242424
2762.85	-0.0252991
2764.18	-0.342083
2765.52	0.00669289
2766.85	0.326009
2768.19	0.268186
2769.52	-0.0222998
2770.86	0.466345
2772.19	0.303086
2773.52	0.0668554
2774.86	0.0899668
2776.19	-0.247073
2777.52	-0.165825
2778.86	0.131557
2780.19	0.38593
2781.52	0.180768
2782.85	0.219934
2784.19	0.273331
2785.52	0.183325
2786.85	0.380097
2788.18	0.262259
2789.51	0.102456
2790.84	0.315577
2792.17	0.414998
2793.5	0.17178
2794.83	-0.128465
2796.16	0.114044
2797.49	0.455829
2798.82	0.268487
2800.15	0.00949574
2801.48	0.16415
2802.81	0.0332985
2804.13	-0.240199
2805.46	0.0558519
2806.79	0.222814
2808.12	-0.0804548
2809.45	-0.127876
2810.77	0.250834
2812.1	0.175535
2813.43	-0.125406
2814.75	-0.141056
2816.08	0.142411
2817.41	0.072608
2818.73	0.244347
2820.06	-0.193382
2821.38	0.431425
2822.71	0.290173
2824.03	0.545014
2825.36	0.601075
2826.68	0.572193
2828	0.473088
2829.33	0.771004
2830.65	0.262491
2831.98	0.23552
2833.3	0.534044
2834.62	0.549109
2835.94	0.889141
2837.27	0.747401
2838.59	0.845731
2839.91	0.745806
2841.23	1.23984
2842.55	1.25352
2843.87	1.45164
2845.2	1.84837
2846.52	1.79355
2847.84	2.16311
2849.16	2.29244
2850.48	2.70412
2851.8	2.91731
2853.12	2.08404
2854.44	2.55054
2855.76	2.63522
2857.08	2.32432
2858.39	2.35254
2859.71	2.35248
2861.03	2.66286
2862.35	2.76099
2863.67	3.04213
2864.98	2.77252
2866.3	3.25066
2867.62	3.33396
2868.94	3.38954
2870.25	3.16363
2871.57	3.75549
2872.88	4.07905
2874.2	3.80979
2875.52	4.20142
2876.83	3.92971
2878.15	4.19201
2879.46	5.04434
2880.78	4.2938
2882.09	4.1491
2883.41	3.97766
2884.72	4.50948
2886.03	4.04507
2887.35	4.21248
2888.66	4.4354
2889.97	4.76945
2891.29	4.42917
2892.6	4.35474
2893.91	4.32221
2895.22	4.55618
2896.54	4.02109
2897.85	4.88686
2899.16	4.6482
2900.47	4.77425
2901.78	4.97075
2903.09	4.53801
2904.4	5.02861
2905.71	5.21179
2907.02	5.63343
2908.33	5.18878
2909.64	5.50054
2910.95	5.79908
2912.26	5.98571
2913.57	6.42346
2914.88	6.52348
2916.19	6.45332
2917.5	6.39522
2918.81	6.25199
2920.11	6.55621
2921.42	6.65134
2922.73	7.48882
2924.04	7.22358
2925.34	7.1974
2926.65	7.98273
2927.96	7.4401
2929.26	7.52601
2930.57	7.37353
2931.87	7.62584
2933.18	7.79391
2934.49	7.52862
2935.79	7.99023
2937.1	7.66937
2938.4	7.30684
2939.7	7.00056
2941.01	7.07217
2942.31	6.62777
2943.62	7.06523
2944.92	6.41406
2946.22	6.61697
2947.53	6.387
2948.83	6.08652
2950.13	5.95244
2951.43	5.46609
2952.74	5.98565
2954.04	5.18736
2955.34	5.35476
2956.64	5.49513
2957.94	5.62389
2959.24	4.97182
2960.54	5.42906
2961.84	5.27241
2963.15	5.0322
2964.45	5.11383
2965.75	4.82861
2967.05	4.47089
2968.34	4.19572
2969.64	4.34139
2970.94	4.00874
2972.24	4.87208
2973.54	4.5682
2974.84	3.79957
2976.14	3.3818
2977.43	4.04669
2978.73	3.2312
2980.03	3.84982
2981.33	3.70666
2982.62	3.29571
2983.92	3.16664
2985.22	2.58911
2986.51	2.88467
2987.81	2.80235
2989.11	2.97403
2990.4	2.66816
2991.7	2.41787
2992.99	2.27882
2994.29	2.04003
2995.58	1.89842
2996.88	1.8965
2998.17	1.65574
2999.46	1.79414
3000.76	1.42819
3002.05	1.37145
3003.34	1.58136
3004.64	1.32894
3005.93	1.37042
3007.22	0.655262
3008.52	1.07312
3009.81	1.15394
3011.1	0.633011
3012.39	1.22926
3013.68	0.541125
3014.97	0.328367
3016.27	0.604125
3017.56	0.434755
3018.85	0.474764
3020.14	0.626004
3021.43	0.429085
3022.72	0.953696
3024.01	1.0878
3025.3	0.5692
3026.59	0.577612
3027.88	0.448092
3029.16	0.154018
3030.45	0.594101
3031.74	0.330899
3033.03	0.137966
3034.32	0.400835
3035.6	0.318014
3036.89	0.38552
3038.18	0.382133
3039.47	0.486814
3040.75	0.355905
3042.04	0.416467
3043.33	0.723464
3044.61	0.346129
3045.9	0.395228
3047.18	0.405481
3048.47	0.773098
3049.75	0.296467
3051.04	0.326544
3052.32	0.425634
3053.61	0.742968
3054.89	0.336425
3056.18	0.378983
3057.46	0.77473
3058.74	0.515201
3060.03	0.745796
3061.31	0.513809
3062.59	0.527859
3063.88	0.665688
3065.16	0.669111
3066.44	0.456465
3067.72	0.190387
3069	0.223756
3070.29	0.147991
3071.57	0.384086
3072.85	0.0748625
3074.13	0.145094
3075.41	0.689799
3076.69	0.255787
3077.97	0.514819
3079.25	0.299854
3080.53	0.330703
3081.81	0.254611
3083.09	0.301854
3084.37	-0.328684
3085.65	0.356997
3086.93	-0.138542
3088.21	-0.729919
3089.49	0.13025
3090.76	0.202615
3092.04	-0.281484
3093.32	0.075655
3094.6	0.039629
3095.87	0.0987391
3097.15	-0.0183783
3098.43	0.271011
3099.7	0.0587087
3100.98	-0.26201
3102.26	0.257063
3103.53	-0.144538
3104.81	-0.125888
3106.08	0.245306
3107.36	0.251957
3108.63	-0.0245643
3109.91	0.0788898
3111.18	-0.0062108
3112.46	0.12608
3113.73	0.0149264
3115	-0.218426
3116.28	0.0221486
3117.55	0.0855594
3118.83	0.229155
3120.1	0.113808
3121.37	0.37707
3122.64	-0.133022
3123.92	-0.0198507
3125.19	-0.150376
3126.46	0.166215
3127.73	0.0366158
3129	-0.241202
3130.27	0.0357695
3131.55	-0.0523334
3132.82	0.102604
3134.09	0.337985
3135.36	0.342999
3136.63	-0.0169444
3137.9	0.229627
3139.17	0.138577
3140.44	0.0204859
3141.71	0.346341
3142.98	0.107549
3144.24	0.299161
3145.51	0.142257
3146.78	0.401761
3148.05	0.259633
3149.32	0.27888
