200.533	0.275875
202.348	0.298
204.162	0.320988
205.976	0.247345
207.792	0.246824
209.605	-0.0215731
211.418	0.0735903
213.23	0.798531
215.044	1.06064
216.856	0.182656
218.667	0.105137
220.478	-0.431702
222.289	0.387278
224.102	0.504948
225.912	-0.440447
227.721	0.136731
229.531	-0.180386
231.34	0.153881
233.148	0.415132
234.956	-0.0470018
236.766	-0.122148
238.574	-0.0993023
240.381	0.190595
242.188	-0.265143
243.994	0.172263
245.801	-0.114172
247.606	-0.16076
249.412	0.321641
251.217	-0.164364
253.024	0.650918
254.828	-0.103999
256.632	-0.303999
258.436	-0.141747
260.239	-0.00247002
262.042	-0.15086
263.845	0.0392466
265.647	0.398829
267.449	0.0116224
269.25	-0.327878
271.052	0.29617
272.852	0.340657
274.653	0.166924
276.453	0.0400515
278.253	-0.208784
280.052	0.118989
281.852	0.131779
283.65	0.0227537
285.449	0.321149
287.247	-0.00571632
289.044	0.195504
290.842	0.13342
292.639	0.407541
294.436	0.754285
296.232	0.480266
298.028	-0.0555639
299.821	0.0304699
301.617	0.235679
303.412	0.392244
305.206	0.261241
307	0.0580311
308.794	-0.121326
310.588	-0.10949
312.381	-0.0967655
314.172	0.345798
315.964	0.718341
317.756	-0.0507088
319.548	0.658078
321.34	0.486492
323.131	0.434584
324.921	0.860184
326.71	0.164098
328.5	0.350949
330.29	0.441807
332.079	0.316475
333.868	0.0460339
335.654	0.491618
337.443	0.576399
339.231	0.467989
341.018	-0.119938
342.804	0.0568628
344.591	0.615754
346.377	0.45808
348.163	-0.176488
349.947	0.335476
351.733	0.0834618
353.518	0.499203
355.303	0.436722
357.085	0.397007
358.869	0.380058
360.653	0.576483
362.435	0.224536
364.218	0.490697
366.001	0.114387
367.781	0.18904
369.563	-0.0928149
371.345	-0.256357
373.124	0.00574589
374.905	-0.323821
376.686	0.220751
378.464	-0.178616
380.244	0.483545
382.022	0.74536
383.801	0.161142
385.58	-0.609386
387.357	0.430995
389.135	-0.337226
390.911	0.234349
392.689	0.219311
394.466	0.0638504
396.241	0.213953
398.018	0.223229
399.792	0.255824
401.568	-0.0407686
403.341	0.131873
405.117	-0.565065
406.889	0.733581
408.664	0.0591574
410.436	0.206284
412.21	-0.0690389
413.981	0.547709
415.755	0.390644
417.525	-0.32892
419.298	-0.250241
421.068	0.180684
422.84	0.0716252
424.609	-0.390172
426.38	-0.101451
428.149	0.257025
429.919	0.122147
431.688	-0.0596681
433.455	0.204702
435.225	0.351994
436.992	0.381905
438.76	0.27043
440.527	0.275116
442.293	0.0436196
444.06	0.185722
445.826	0.232472
447.593	0.442024
449.357	0.0896602
451.122	-0.0750937
452.888	0.134169
454.651	0.413241
456.415	0.528715
458.18	0.667178
459.942	0.340115
461.705	0.595441
463.469	0.433442
465.23	-0.167936
466.991	0.34832
468.752	0.239333
470.515	0.457319
472.275	0.373497
474.035	0.568355
475.797	0.808515
477.556	0.534477
479.315	0.0958443
481.073	0.052484
482.834	0.172305
484.592	-0.126186
486.349	0.881347
488.106	0.213227
489.863	0.688857
491.622	0.559154
493.378	0.523215
495.134	0.136559
496.889	-0.110436
498.645	0.344823
500.401	0.284604
502.156	0.106394
503.91	0.467459
505.664	0.122969
507.417	0.45898
509.171	0.347073
510.923	0.445593
512.678	-0.163066
514.43	0.450692
516.182	1.0867
517.933	1.01582
519.684	0.7561
521.435	0.261039
523.186	0.306221
524.936	0.562431
526.686	0.278825
528.435	0.253446
530.184	0.462346
531.933	0.717535
533.682	0.831316
535.43	0.172122
537.18	0.541111
538.927	0.30131
540.674	0.340923
542.421	0.100331
544.167	0.232242
545.913	0.36382
547.659	0.564861
549.403	0.417948
551.148	0.202078
552.893	0.518815
554.637	0.141891
556.381	-0.141706
558.125	0.40569
559.868	0.652972
561.611	0.670113
563.354	0.0436988
565.097	0.63685
566.839	0.310957
568.581	-0.243475
570.322	0.878599
572.063	-0.201283
573.802	0.0968122
575.542	0.304515
577.283	0.582465
579.022	0.609164
580.762	-0.0525284
582.501	0.112455
584.24	0.323154
585.976	0.00424099
587.714	0.443325
589.452	0.398455
591.19	0.490892
592.927	0.421868
594.663	0.214691
596.398	0.421685
598.134	0.053483
599.87	-0.0849237
601.605	0.305134
603.338	-0.0188723
605.073	-0.0219374
606.808	0.157838
608.542	-0.260243
610.274	-0.104167
612.007	0.350286
613.74	0.323459
615.473	0.113843
617.204	0.271074
618.936	0.0613537
620.668	0.42323
622.397	-0.108412
624.128	0.0915074
625.859	0.336855
627.588	0.674077
629.318	0.624656
631.048	0.440292
632.775	0.805234
634.505	0.075592
636.233	0.715071
637.96	0.303153
639.688	0.208727
641.416	0.499812
643.142	0.81135
644.869	0.620455
646.594	0.657679
648.32	0.69641
650.045	0.487761
651.771	0.304983
653.496	0.420674
655.219	0.516362
656.944	0.59125
658.667	0.553041
660.391	0.560028
662.113	0.497217
663.837	0.958104
665.558	0.868731
667.281	0.914938
669.002	0.846207
670.724	0.412081
672.444	0.253819
674.166	0.372063
675.885	1.01933
677.606	0.223305
679.325	0.895733
681.045	1.03987
682.763	0.883644
684.483	0.771498
686.2	0.887907
687.917	0.243022
689.636	0.426373
691.352	0.563107
693.07	0.445957
694.786	0.44339
696.501	0.440053
698.219	0.919197
699.933	0.614623
701.65	0.907351
703.364	0.96914
705.078	0.731703
706.793	0.654825
708.506	0.692394
710.219	0.500476
711.934	0.743535
713.646	0.597108
715.358	0.382231
717.071	0.624306
718.782	1.29942
720.493	0.606071
722.204	0.984267
723.916	1.38459
725.626	0.806664
727.336	1.45595
729.045	1.37758
730.756	1.11761
732.464	0.903144
734.173	1.41291
735.881	1.19846
737.59	0.781518
739.297	0.839635
741.004	0.718096
742.711	1.40859
744.417	1.13131
746.125	0.922946
747.831	1.27826
749.537	0.959713
751.242	1.3395
752.946	1.18053
754.651	1.60758
756.357	1.22592
758.061	1.0028
759.764	1.11853
761.467	1.4382
763.17	1.26236
764.872	1.15375
766.575	0.953687
768.276	0.932803
769.978	1.67901
771.679	2.08456
773.382	2.19493
775.083	1.53613
776.783	1.37529
778.483	1.84861
780.182	1.26036
781.882	1.96223
783.581	1.62359
785.279	2.05344
786.978	1.62113
788.676	1.70684
790.373	1.51833
792.071	2.25448
793.768	1.74614
795.464	1.55434
797.161	1.4538
798.857	2.41321
800.552	2.06754
802.248	1.52093
803.941	1.96481
805.636	1.19427
807.33	2.37854
809.024	2.32543
810.718	2.00206
812.412	1.9026
814.105	2.51976
815.798	1.77013
817.49	1.53616
819.183	2.35298
820.873	2.14144
822.564	2.13136
824.256	1.85444
825.947	1.9133
827.637	1.61753
829.328	2.52673
831.016	1.43408
832.705	1.67997
834.395	1.8609
836.084	2.28819
837.772	1.71145
839.459	1.78065
841.147	1.5582
842.835	2.40697
844.522	2.20539
846.209	2.18314
847.894	2.00588
849.581	1.49489
851.267	1.85849
852.953	1.8881
854.637	1.22287
856.322	1.00533
858.007	1.66337
859.689	1.7811
861.374	1.82992
863.058	1.76478
864.739	1.81117
866.423	1.22559
868.106	1.45094
869.787	2.10453
871.469	2.28436
873.151	1.69698
874.831	1.5832
876.512	1.37911
878.193	1.98749
879.872	1.39955
881.553	1.17236
883.231	1.21546
884.911	1.43825
886.591	1.61468
888.268	1.63176
889.947	1.01609
891.623	1.34644
893.302	1.02219
894.978	1.64253
896.656	1.51904
898.331	1.39496
900.008	1.4498
901.683	1.39183
903.359	2.09427
905.033	1.47633
906.709	1.21721
908.383	1.40508
910.058	1.10332
911.731	0.869639
913.405	1.30364
915.078	1.02659
916.752	1.23808
918.423	1.11669
920.096	1.61553
921.768	1.47244
923.438	1.8389
925.111	1.38891
926.781	1.02923
928.452	1.24501
930.122	1.77058
931.791	1.56841
933.462	1.36651
935.13	1.07656
936.799	0.831121
938.468	1.53471
940.136	1.13654
941.803	0.893618
943.472	1.11452
945.139	0.893948
946.805	1.44497
948.473	1.35437
950.139	0.953255
951.804	1.43386
953.471	0.326306
955.136	1.53577
956.801	1.33607
958.465	1.05069
960.131	1.05417
961.794	0.639139
963.458	0.997039
965.12	1.06648
966.785	1.04532
968.447	0.889149
970.109	0.753474
971.771	1.14803
973.432	1.32167
975.095	1.60704
976.756	0.942956
978.417	0.854953
980.077	0.933351
981.737	1.01144
983.396	0.546069
985.057	0.986774
986.716	0.983052
988.375	0.800911
990.033	0.927521
991.691	1.56176
993.349	1.17914
995.006	1.12813
996.663	0.305126
998.32	0.894116
999.976	1.81273
1001.63	1.38656
1003.29	1.0486
1004.95	0.688841
1006.6	0.90083
1008.26	1.35414
1009.91	0.973222
1011.56	1.0098
1013.22	0.959023
1014.87	0.8648
1016.53	1.01179
1018.18	0.808949
1019.83	0.541313
1021.48	1.03987
1023.14	1.01444
1024.79	0.749368
1026.44	0.878135
1028.09	0.919461
1029.74	1.15685
1031.39	0.934476
1033.04	0.820112
1034.69	0.944527
1036.34	0.718847
1037.99	0.863195
1039.64	0.419554
1041.29	1.43436
1042.94	0.796905
1044.58	1.22611
1046.23	1.07015
1047.88	1.00265
1049.52	0.936463
1051.17	0.892973
1052.82	0.35042
1054.46	0.28595
1056.11	0.764803
1057.75	0.961005
1059.4	0.852467
1061.04	0.504186
1062.69	0.959803
1064.33	1.11023
1065.98	1.08582
1067.62	0.625853
1069.26	0.643362
1070.9	0.812359
1072.55	0.959393
1074.19	0.368985
1075.83	0.495564
1077.47	0.21105
1079.11	0.643113
1080.76	0.533594
1082.4	0.901084
1084.04	0.725739
1085.68	1.17776
1087.32	0.739424
1088.95	0.603042
1090.59	1.39579
1092.23	0.629871
1093.87	0.620788
1095.51	1.38854
1097.15	0.970059
1098.78	0.617972
1100.42	0.396883
1102.06	0.995151
1103.69	0.647905
1105.33	0.818033
1106.97	1.65528
1108.6	0.234031
1110.24	0.295933
1111.87	1.00134
1113.51	0.544828
1115.14	0.495733
1116.77	1.30431
1118.41	0.782778
1120.04	0.733793
1121.67	0.450119
1123.31	0.80961
1124.94	0.677511
1126.57	0.439236
1128.2	-0.0763292
1129.83	0.541995
1131.47	0.818535
1133.1	0.496683
1134.72	0.687768
1136.36	0.301224
1137.98	0.234524
1139.62	0.166939
1141.24	0.0773025
1142.87	-0.20467
1144.5	0.217551
1146.13	-0.298097
1147.76	-0.21597
1149.38	0.164984
1151.01	0.418292
1152.64	0.309449
1154.27	0.264247
1155.89	0.2826
1157.52	0.449774
1159.14	0.170479
1160.77	0.040822
1162.39	0.230964
1164.02	-0.194756
1165.64	0.357924
1167.27	0.421356
1168.89	0.48392
1170.51	0.523857
1172.14	0.264798
1173.76	0.705262
1175.38	0.295538
1177	0.712761
1178.63	0.00688457
1180.25	0.403213
1181.87	0.588181
1183.49	-0.262472
1185.11	0.0710549
1186.73	0.741264
1188.35	0.544132
1189.97	0.34578
1191.59	0.104271
1193.21	0.471901
1194.83	0.774901
1196.45	0.699716
1198.07	0.332397
1199.68	0.845671
1201.3	0.607664
1202.92	0.518321
1204.53	0.514597
1206.15	0.888105
1207.77	0.177715
1209.38	0.448068
1211	0.592544
1212.62	0.839797
1214.23	0.793278
1215.84	0.557604
1217.46	0.508117
1219.07	0.686507
1220.69	0.802167
1222.3	0.171614
1223.91	0.558421
1225.53	0.593826
1227.14	0.754536
1228.75	1.16439
1230.36	1.07875
1231.97	1.05617
1233.59	1.15861
1235.2	1.01407
1236.81	1.22188
1238.42	0.707025
1240.03	0.812823
1241.64	0.918812
1243.25	0.590102
1244.85	0.94348
1246.46	1.15124
1248.07	0.965014
1249.68	1.10924
1251.29	1.50141
1252.9	1.23178
1254.5	1.10759
1256.11	1.31526
1257.72	1.193
1259.32	0.885409
1260.93	1.32355
1262.54	1.12044
1264.14	0.56501
1265.75	0.920662
1267.35	1.15156
1268.96	1.36104
1270.56	1.13427
1272.16	1.05175
1273.77	1.15497
1275.37	1.11223
1276.97	1.48317
1278.57	0.796744
1280.18	0.917871
1281.78	0.914474
1283.38	1.24217
1284.98	1.15647
1286.58	0.76149
1288.18	0.98758
1289.78	1.09033
1291.38	1.27612
1292.99	1.02788
1294.58	1.52277
1296.18	1.08697
1297.78	1.5378
1299.38	1.28529
1300.98	1.32046
1302.58	1.41632
1304.17	1.69641
1305.77	1.56415
1307.37	2.08889
1308.97	1.27881
1310.56	1.31065
1312.16	0.790045
1313.76	1.66174
1315.35	1.02066
1316.95	1.54515
1318.54	1.57967
1320.14	1.02282
1321.73	1.05679
1323.32	1.17081
1324.92	1.56769
1326.51	1.59702
1328.1	1.60555
1329.7	1.02741
1331.29	1.28113
1332.88	0.990676
1334.47	1.51012
1336.07	1.4249
1337.66	1.09821
1339.25	1.59768
1340.84	1.81305
1342.43	1.02007
1344.02	1.51344
1345.61	1.26199
1347.2	1.0113
1348.79	1.28334
1350.37	0.176071
1351.96	0.912323
1353.55	0.829794
1355.14	0.848281
1356.73	0.847056
1358.31	0.745589
1359.9	0.523623
1361.49	0.620356
1363.07	0.496918
1364.66	0.612584
1366.25	0.289999
1367.83	0.804751
1369.42	0.762666
1371	0.721743
1372.59	0.582449
1374.17	0.643024
1375.75	0.544935
1377.34	0.526498
1378.92	1.3036
1380.5	0.348734
1382.09	0.626495
1383.67	1.06214
1385.25	0.184793
1386.83	0.301257
1388.42	0.49717
1390	0.633889
1391.58	0.592638
1393.16	0.770244
1394.74	0.0357323
1396.32	0.72906
1397.9	0.192442
1399.48	0.903753
1401.06	0.405569
1402.64	0.837763
1404.21	0.280333
1405.79	0.930039
1407.37	0.848569
1408.95	0.313422
1410.53	0.272799
1412.1	0.962762
1413.68	0.506904
1415.26	0.978019
1416.83	0.304232
1418.41	0.576919
1419.98	0.495016
1421.56	0.453427
1423.13	0.924899
1424.71	0.629927
1426.28	1.20199
1427.86	1.16435
1429.43	0.654059
1431	1.10748
1432.58	1.24497
1434.15	0.693067
1435.72	1.53746
1437.29	1.18223
1438.87	1.26026
1440.44	1.00499
1442.01	1.20256
1443.58	1.83309
1445.15	1.5599
1446.72	1.10995
1448.29	1.40703
1449.86	1.62579
1451.43	1.51076
1453	1.02247
1454.57	1.4785
1456.14	1.20669
1457.71	1.44588
1459.27	1.84148
1460.84	1.4287
1462.41	1.54565
1463.98	0.677882
1465.54	1.06796
1467.11	0.376976
1468.67	0.727563
1470.24	0.862666
1471.81	0.66509
1473.37	0.488086
1474.94	-0.0804257
1476.5	0.527938
1478.07	0.685335
1479.63	0.352593
1481.19	0.764641
1482.76	0.490628
1484.32	0.432117
1485.88	0.667187
1487.45	0.274806
1489.01	-0.04004
1490.57	0.563611
1492.13	0.636827
1493.69	0.571439
1495.26	0.641304
1496.82	0.495819
1498.38	0.331089
1499.94	0.303252
1501.5	-0.228376
1503.06	0.114649
1504.62	-0.0460553
1506.17	0.258286
1507.73	-0.0572648
1509.29	-0.315003
1510.85	0.140884
1512.41	0.113245
1513.97	0.239347
1515.52	0.672809
1517.08	0.107451
1518.64	0.330206
1520.19	0.45717
1521.75	0.48835
1523.31	0.328052
1524.86	-0.328855
1526.42	-0.0125465
1527.97	0.492632
1529.52	-0.353935
1531.08	-0.134915
1532.63	0.00806141
1534.19	-0.000144005
1535.74	0.522052
1537.29	0.382588
1538.85	0.168461
1540.4	0.0116248
1541.95	0.702836
1543.5	0.319947
1545.06	0.689665
1546.61	0.19452
1548.16	0.769699
1549.71	0.687677
1551.26	0.437466
1552.81	0.150771
1554.36	0.893253
1555.91	-0.0264053
1557.46	0.120378
1559.01	0.137926
1560.56	0.847165
1562.11	0.195794
1563.65	0.701931
1565.2	0.424966
1566.75	0.726507
1568.29	0.822635
1569.84	0.71315
1571.39	0.640673
1572.94	0.866643
1574.48	0.83117
1576.03	0.590379
1577.57	1.07782
1579.12	0.59485
1580.66	0.784488
1582.21	0.974841
1583.75	0.885767
1585.3	0.348717
1586.84	0.839937
1588.38	0.658324
1589.93	0.71964
1591.47	0.687053
1593.01	1.08475
1594.55	0.939278
1596.1	0.793768
1597.64	0.629769
1599.18	0.934946
1600.72	0.828272
1602.26	1.34125
1603.8	1.19746
1605.34	0.921446
1606.88	0.888397
1608.42	1.19205
1609.96	0.610447
1611.5	1.02303
1613.04	0.475921
1614.58	0.67913
1616.12	1.27562
1617.65	0.597212
1619.19	0.857216
1620.73	0.425308
1622.27	0.556417
1623.8	0.72556
1625.34	1.21288
1626.87	0.7262
1628.41	1.09932
1629.95	1.07829
1631.48	1.07511
1633.02	0.623362
1634.55	0.881739
1636.09	1.3644
1637.62	0.896297
1639.15	0.913775
1640.69	0.614433
1642.22	1.78651
1643.76	0.871128
1645.29	1.79798
1646.82	1.43976
1648.35	0.951749
1649.88	0.966111
1651.42	1.18539
1652.95	1.14583
1654.48	1.68199
1656.01	1.32868
1657.54	1.30903
1659.07	1.21464
1660.6	1.30435
1662.13	1.5222
1663.66	0.851509
1665.19	1.27112
1666.72	1.54274
1668.24	1.5752
1669.77	1.33246
1671.3	1.16494
1672.83	1.25633
1674.35	1.5322
1675.88	0.758333
1677.41	1.14372
1678.93	0.994408
1680.46	1.00984
1681.99	0.914391
1683.51	0.818801
1685.04	1.0537
1686.56	0.756791
1688.09	0.442285
1689.61	0.677981
1691.13	0.730549
1692.66	0.270727
1694.18	0.213713
1695.71	0.595371
1697.23	0.610991
1698.75	0.151533
1700.27	0.29452
1701.8	0.291008
1703.32	-0.0591989
1704.84	0.410118
1706.36	-0.0313892
1707.88	0.109349
1709.4	0.0499887
1710.92	-0.0999265
1712.44	0.149442
1713.96	0.0724287
1715.48	-0.384553
1717	0.0816031
1718.52	0.348094
1720.04	0.126545
1721.56	0.140059
1723.07	0.0458388
1724.59	0.0606356
1726.11	0.238519
1727.63	0.165312
1729.14	0.362846
1730.66	-0.301815
1732.18	-0.441669
1733.69	0.212317
1735.21	0.266534
1736.72	0.0529423
1738.24	0.06457
1739.75	0.30419
1741.27	0.294095
1742.78	-0.155575
1744.3	-0.241801
1745.81	-0.0492034
1747.32	-0.184841
1748.84	0.19621
1750.35	0.0374475
1751.86	0.0923672
1753.37	-0.16238
1754.89	-0.206928
1756.4	0.28091
1757.91	0.0353737
1759.42	0.101525
1760.93	-0.104999
1762.44	0.0578432
1763.95	-0.0589609
1765.46	0.195142
1766.97	-0.0979161
1768.48	0.223732
1769.99	0.119675
1771.5	0.205853
1773.01	-0.374021
1774.52	0.153251
1776.03	-0.148431
1777.53	-0.176753
1779.04	-0.155855
1780.55	0.0800486
1782.06	0.19482
1783.56	-0.180079
1785.07	0.0436044
1786.57	0.163531
1788.08	0.396683
1789.59	0.240897
1791.09	0.0462537
1792.6	-0.153068
1794.1	0.175053
1795.6	-0.196518
1797.11	-0.0195298
1798.61	0.149307
1800.12	-0.0179386
1801.62	-0.0889187
1803.12	-0.113862
1804.63	0.0250673
1806.13	-0.0111914
1807.63	0.130362
1809.13	0.104917
1810.63	-0.0846267
1812.14	-0.170432
1813.64	0.0397215
1815.14	-0.190537
1816.64	-0.0309787
1818.14	-0.0572495
1819.64	0.18469
1821.14	-0.0884471
1822.64	-0.0696244
1824.14	-0.0180292
1825.63	0.268284
1827.13	-0.109464
1828.63	0.235701
1830.13	0.0989666
1831.63	0.109635
1833.12	0.0675478
1834.62	0.219392
1836.12	-0.15786
1837.62	-0.124854
1839.11	0.0515714
1840.61	0.116735
1842.1	0.195631
1843.6	-0.0394659
1845.09	-0.0972795
1846.59	-0.0794735
1848.08	-0.0603204
1849.58	0.272629
1851.07	0.347023
1852.57	-0.022294
1854.06	0.0258107
1855.55	0.0982485
1857.04	-0.171232
1858.54	0.328055
1860.03	0.0780678
1861.52	0.152037
1863.01	0.084785
1864.5	0.101793
1866	0.329887
1867.49	0.142706
1868.98	0.306697
1870.47	0.26667
1871.96	0.112029
1873.45	-0.0503354
1874.94	0.00290489
1876.43	0.0346956
1877.92	0.170405
1879.41	-3.33786e-005
1880.89	0.0980473
1882.38	-0.115883
1882.48	-0.13127
1883.97	-0.463259
1885.47	0.145407
1886.96	0.404464
1888.46	0.123169
1889.95	0.0684896
1891.44	0.0668201
1892.94	0.275078
1894.43	-0.245412
1895.92	0.0698948
1897.41	-0.135742
1898.9	-0.271944
1900.4	0.199946
1901.89	0.166049
1903.38	0.0785418
1904.87	0.198514
1906.36	0.282955
1907.85	-0.0495076
1909.34	0.0527658
1910.83	-0.104562
1912.32	-0.278423
1913.81	0.189958
1915.29	0.172717
1916.78	0.432611
1918.27	0.0679665
1919.76	0.361581
1921.25	0.204572
1922.74	0.203825
1924.22	0.0826025
1925.71	0.222001
1927.2	0.362284
1928.68	0.364635
1930.17	0.124547
1931.65	0.351352
1933.14	-0.184926
1934.63	0.125832
1936.11	0.365769
1937.59	0.29319
1939.08	0.323971
1940.56	0.182263
1942.05	0.196733
1943.53	0.108552
1945.01	0.331549
1946.5	0.416819
1947.98	0.553558
1949.46	0.293357
1950.94	-0.122392
1952.43	0.149884
1953.91	-0.0257549
1955.39	0.434562
1956.87	0.0187774
1958.35	0.221903
1959.83	0.0480227
1961.31	0.131953
1962.79	-0.0239744
1964.27	-0.248447
1965.75	-0.130602
1967.23	-0.0647621
1968.71	0.410988
1970.19	0.32154
1971.67	0.402805
1973.14	0.159592
1974.62	0.155588
1976.1	-0.0868897
1977.58	-0.00527096
1979.05	0.00822687
1980.53	0.00467634
1982.01	0.47695
1983.48	0.115983
1984.96	0.349345
1986.43	0.141166
1987.91	0.0349746
1989.38	0.369478
1990.86	-0.0574794
1992.33	0.108798
1993.81	0.123566
1995.28	0.257282
1996.76	-0.402738
1998.23	0.71094
1999.7	0.675484
2001.18	0.0995312
2002.65	0.147773
2004.12	0.38128
2005.59	0.176721
2007.06	0.023458
2008.54	0.275178
2010.01	0.409645
2011.48	0.258351
2012.95	0.544763
2014.42	0.00614643
2015.89	0.140116
2017.36	0.205997
2018.83	0.321576
2020.3	0.0837321
2021.77	0.148284
2023.24	-0.0051856
2024.71	0.362227
2026.17	0.394885
2027.64	0.462266
2029.11	0.346397
2030.58	0.28194
2032.04	0.218252
2033.51	0.205294
2034.98	0.309873
2036.45	-0.00575066
2037.91	0.0644889
2039.38	-0.134464
2040.84	0.13712
2042.31	0.106465
2043.77	0.395953
2045.24	0.400349
2046.7	0.0686707
2048.17	0.427531
2049.63	-0.0055995
2051.1	0.2345
2052.56	-0.0324302
2054.02	0.525535
2055.48	0.474896
2056.95	0.203961
2058.41	0.522325
2059.87	0.537082
2061.33	-0.289724
2062.8	0.0292463
2064.26	0.0964127
2065.72	-0.00392723
2067.18	0.0646968
2068.64	0.217958
2070.1	0.0685177
2071.56	0.0200982
2073.02	-0.0452828
2074.48	0.326926
2075.94	0.362115
2077.4	0.211757
2078.86	0.263152
2080.31	0.533069
2081.77	0.650933
2083.23	0.431527
2084.69	0.0265031
2086.14	0.563171
2087.6	0.325415
2089.06	0.00349903
2090.52	0.370426
2091.97	0.82085
2093.43	0.532412
2094.88	0.0260539
2096.34	0.408189
2097.79	0.554796
2099.25	0.349192
2100.7	0.662035
2102.16	0.640355
2103.61	0.33551
2105.07	0.666278
2106.52	0.263861
2107.97	1.06344
2109.43	0.729049
2110.88	0.72779
2112.33	0.442146
2113.78	0.538405
2115.24	0.433499
2116.69	0.74362
2118.14	0.50529
2119.59	0.650169
2121.04	0.94578
2122.49	0.479933
2123.94	0.944121
2125.39	0.646055
2126.84	0.696015
2128.29	0.64567
2129.74	0.660487
2131.19	1.20419
2132.64	0.654093
2134.09	1.19642
2135.54	0.945159
2136.98	0.827584
2138.43	1.19088
2139.88	0.97736
2141.33	0.980094
2142.77	1.4138
2144.22	1.15362
2145.67	1.3402
2147.11	1.07965
2148.56	1.24898
2150.01	0.870949
2151.45	1.3038
2152.9	1.57015
2154.34	1.42153
2155.79	1.07369
2157.23	1.63704
2158.67	1.38928
2160.12	1.35802
2161.56	1.51056
2163	1.56538
2164.45	1.09078
2165.89	1.26375
2167.33	1.76919
2168.78	1.84214
2170.22	1.51436
2171.66	1.28429
2173.1	1.25208
2174.54	1.53468
2175.98	1.45077
2177.42	1.5832
2178.86	1.50012
2180.3	1.31816
2181.74	1.55263
2183.18	1.45509
2184.62	1.79023
2186.06	1.46011
2187.5	1.39612
2188.94	1.41534
2190.38	1.35132
2191.82	0.770938
2193.25	1.2554
2194.69	1.03948
2196.13	1.28815
2197.57	1.35188
2199	1.34748
2200.44	1.15938
2201.88	1.43625
2203.31	1.33169
2204.75	1.17847
2206.18	1.20862
2207.62	1.07355
2209.05	1.05437
2210.49	0.786281
2211.92	1.24545
2213.36	0.942973
2214.79	1.08676
2216.22	1.19784
2217.66	1.02929
2219.09	0.878465
2220.52	0.827403
2221.96	1.23796
2223.39	0.889791
2224.82	0.919482
2226.25	1.02994
2227.68	1.08944
2229.11	0.852042
2230.55	0.712887
2231.98	0.590227
2233.41	0.697207
2234.84	0.919043
2236.27	0.455273
2237.7	0.646553
2239.12	0.463873
2240.55	0.217728
2241.98	0.560271
2243.41	0.626551
2244.84	0.317996
2246.27	0.318831
2247.7	0.318418
2249.12	0.511901
2250.55	0.491552
2251.98	0.567421
2253.41	0.25213
2254.83	0.538765
2256.26	0.192924
2257.68	0.530877
2259.11	0.286895
2260.54	0.580714
2261.96	0.568329
2263.39	0.199978
2264.81	0.465259
2266.24	0.567962
2267.66	0.702648
2269.08	0.267068
2270.51	0.677042
2271.93	0.354064
2273.35	0.372795
2274.78	0.603357
2276.2	0.280206
2277.62	0.755632
2279.04	0.514062
2280.47	0.158165
2281.89	0.487036
2283.31	0.408119
2284.73	0.508691
2286.15	0.609488
2287.57	0.00854778
2288.99	0.387561
2290.41	0.391373
2291.83	0.19925
2293.25	0.203308
2294.67	0.370967
2296.09	0.52233
2297.51	0.428141
2298.93	0.202846
2300.35	0.370847
2301.76	0.260474
2303.18	0.330688
2304.6	0.450344
2306.02	0.455104
2307.44	0.19669
2308.85	-0.0130811
2310.27	0.417829
2311.69	0.536154
2313.1	0.341884
2314.52	0.312397
2315.93	0.431674
2317.35	0.33753
2318.76	-0.217901
2320.18	0.0340629
2321.59	-0.143584
2323.01	0.20535
2324.42	0.453456
2325.83	0.666593
2327.25	0.911077
2328.66	0.742577
2330.07	0.393212
2331.49	0.407123
2332.9	0.158605
2334.31	0.190647
2335.72	0.53545
2337.13	0.254763
2338.55	-0.0100913
2339.96	0.0694532
2341.37	0.0167656
2342.78	0.144248
2344.19	0.173119
2345.6	0.0218716
2347.01	0.182248
2348.42	0.555256
2349.83	0.191334
2351.24	0.399426
2352.65	0.181715
2354.05	-0.166916
2355.46	-0.0100913
2356.87	-0.0981207
2358.28	0.318229
2359.69	0.0188637
2361.09	0.0772843
2362.5	0.362554
2363.91	-0.0816941
2365.31	0.154458
2366.72	0.147826
2368.13	-0.0843644
2369.53	0.120229
2370.94	-0.0452118
2372.34	0.290039
2373.75	-0.00224113
2375.15	-0.390526
2376.56	-0.0386333
2377.96	0.553265
2379.37	-0.0941672
2380.77	0.28557
2382.17	0.294544
2383.58	0.0624871
2384.98	0.246681
2386.38	0.0552812
2387.79	-0.134985
2389.19	-0.0608568
2390.59	0.380549
2391.99	0.026248
2393.39	0.24602
2394.8	-0.0585914
2396.2	-0.01262
2397.6	0.0338202
2399	0.0330305
2400.4	0.127956
2401.8	-0.142216
2403.2	0.334154
2404.6	0.190814
2406	0.030983
2407.4	0.156126
2408.79	-0.0842581
2410.19	-0.229569
2411.59	0.084877
2412.99	-0.154611
2414.39	0.461996
2415.78	0.288078
2417.18	0.0677824
2418.58	0.370715
2419.98	-0.00692177
2421.37	0.15378
2422.77	0.139987
2424.16	0.205187
2425.56	0.0327477
2426.96	0.209336
2428.35	0.339148
2429.74	0.311243
2431.14	0.315642
2432.53	0.129691
2433.93	-0.0727124
2435.32	0.232237
2436.72	0.456665
2438.11	0.139635
2439.5	-0.0513005
2440.9	0.138244
2442.29	0.184345
2443.68	0.182566
2445.07	-0.200033
2446.47	0.0517569
2447.86	-0.15636
2449.25	0.332668
2450.64	0.283114
2452.03	0.107411
2453.42	0.153973
2454.81	0.0113692
2456.2	-0.0673537
2457.59	0.138925
2458.98	0.0603647
2460.37	0.0130019
2461.76	0.265423
2463.15	-0.0361476
2464.54	0.0728116
2465.93	-0.102834
2467.32	0.258304
2468.7	0.0352759
2470.09	0.0488625
2471.48	0.330043
2472.87	-0.30334
2474.25	-0.117886
2475.64	-0.106247
2477.03	-0.0949278
2478.41	-0.0836749
2479.8	-0.103695
2481.18	0.095974
2482.57	0.310954
2483.95	-0.0383573
2485.34	-0.168777
2486.72	0.278249
2488.11	0.19279
2489.49	-0.00217199
2490.88	0.176772
2492.26	-0.0174026
2493.65	0.426364
2495.03	0.172276
2496.41	-0.0958271
2497.79	-0.0530443
2499.18	0.0208731
2500.56	0.0944395
2501.94	0.445467
2503.32	0.161985
2504.7	0.0171418
2506.09	-0.0508571
2507.47	0.127349
2508.85	-0.048347
2510.23	0.068471
2511.61	0.0781703
2512.99	-0.141445
2514.37	0.513053
2515.75	0.111206
2517.13	0.200026
2518.51	-0.30706
2519.89	0.0575571
2521.26	0.268867
2522.64	0.250452
2524.02	0.0788503
2525.4	-0.47409
2526.78	-0.0669775
2528.15	0.461519
2529.53	0.366735
2530.91	-0.0457873
2532.28	0.28789
2533.66	0.106035
2535.04	0.243864
2536.41	0.123413
2537.79	0.0784135
2539.16	0.306044
2540.54	0.0925646
2541.91	0.0610533
2543.29	0.0752954
2544.66	-0.0614786
2546.04	0.0302868
2547.41	-0.0589781
2548.78	0.0193172
2550.16	0.0370426
2551.53	0.190997
2552.9	0.101416
2554.27	-0.353189
2555.65	-0.383531
2557.02	-0.232267
2558.39	0.176585
2559.76	0.251926
2561.13	0.236746
2562.51	-0.141599
2563.88	0.192826
2565.25	0.315457
2566.62	-0.1224
2567.99	0.197552
2569.36	0.153812
2570.73	-0.0414906
2572.1	-0.0245643
2573.47	0.265294
2574.84	0.373369
2576.2	0.238928
2577.57	0.407662
2578.94	0.045537
2580.31	0.289649
2581.68	-0.0427575
2583.05	0.170399
2584.41	0.292368
2585.78	0.11111
2587.15	0.051249
2588.51	0.112808
2589.88	-0.113471
2591.24	0.0541959
2592.61	0.0396543
2593.98	-0.202738
2595.34	-0.158056
2596.71	0.0220165
2598.07	0.0953751
2599.44	0.0171485
2600.8	-0.166675
2602.16	0.14848
2603.53	-0.0191665
2604.89	0.0552344
2606.26	0.250444
2607.62	0.0833764
2608.98	0.413155
2610.34	0.304759
2611.71	0.165313
2613.07	-0.0650764
2614.43	0.440422
2615.79	0.134338
2617.15	0.128888
2618.52	-0.130659
2619.88	0.299232
2621.24	0.0711532
2622.6	-0.126263
2623.96	0.00530434
2625.32	0.181448
2626.68	-0.000735283
2628.04	0.293933
2629.4	-0.097023
2630.75	-0.175082
2632.11	0.16316
2633.47	-0.1379
2634.83	-0.379115
2636.19	-0.0563951
2637.55	0.0287113
2638.9	0.0545077
2640.26	-0.230291
2641.62	0.224746
2642.98	-0.0592937
2644.33	-0.0770445
2645.69	-0.0505509
2647.04	0.0788002
2648.4	0.0453825
2649.76	0.23212
2651.11	-0.0672121
2652.47	-0.0724583
2653.82	0.0691972
2655.18	-0.00868225
2656.53	0.339203
2657.88	0.102112
2659.24	0.144009
2660.59	0.142363
2661.95	0.155245
2663.3	0.240683
2664.65	0.0918145
2666	0.146749
2667.36	0.113769
2668.71	-0.195902
2670.06	0.208107
2671.41	0.146683
2672.76	-0.306442
2674.12	-0.337385
2675.47	0.140181
2676.82	0.37114
2678.17	0.254401
2679.52	0.254435
2680.87	-0.0201187
2682.22	0.141276
2683.57	-0.174843
2684.92	0.017343
2686.27	-0.138183
2687.62	0.127035
2688.97	0.318874
2690.31	0.102883
2691.66	0.422494
2693.01	-0.0428271
2694.36	0.318045
2695.71	-0.0462642
2697.05	0.271117
2698.4	0.212806
2699.75	0.054554
2701.09	0.187343
2702.44	0.249005
2703.78	0.210174
2705.13	0.36023
2706.48	0.0608606
2707.82	-0.0503349
2709.17	0.331637
2710.51	0.0310621
2711.86	0.325673
2713.2	0.271619
2714.54	0.37738
2715.89	0.206912
2717.23	0.0507903
2718.57	0.0398722
2719.92	-0.000425816
2721.26	0.46828
2722.6	0.165314
2723.95	0.0511494
2725.29	0.285979
2726.63	0.374949
2727.97	0.390887
2729.31	0.290214
2730.65	0.218558
2732	0.437878
2733.34	0.35174
2734.68	0.353055
2736.02	0.383641
2737.36	0.254374
2738.7	0.197836
2740.04	0.272006
2741.38	0.214927
2742.72	0.157361
2744.05	0.331799
2745.39	0.331285
2746.73	0.0690336
2748.07	-0.0770164
2749.41	0.371978
2750.75	0.124619
2752.08	0.167629
2753.42	0.225306
2754.76	-0.00666475
2756.09	-0.296306
2757.43	0.0949044
2758.77	0.0952663
2760.1	0.2841
2761.44	0.22727
2762.78	0.141922
2764.11	-0.0154862
2765.44	-0.0571198
2766.78	0.103463
2768.11	0.14757
2769.45	0.29185
2770.78	0.0735345
2772.12	0.345406
2773.45	0.125408
2774.78	0.208093
2776.12	-0.0695009
2777.45	0.114217
2778.78	0.226188
2780.12	0.352805
2781.45	-0.0518131
2782.78	0.233054
2784.11	0.316729
2785.44	0.170965
2786.78	0.0541897
2788.11	0.124053
2789.44	0.337555
2790.77	-0.0490708
2792.1	-0.306125
2793.43	0.0662985
2794.76	0.0241456
2796.09	0.267533
2797.42	0.581764
2798.75	0.0814385
2800.08	0.294792
2801.4	0.208164
2802.73	0.363863
2804.06	-0.0650792
2805.39	0.289464
2806.72	0.159154
2808.05	0.298759
2809.37	0.352537
2810.7	-0.147599
2812.03	-0.00793648
2813.35	0.18917
2814.68	0.0328188
2816.01	-0.0939379
2817.33	0.0920444
2818.66	0.391886
2819.98	0.138987
2821.31	-0.0150304
2822.63	-0.141189
2823.96	0.0722528
2825.28	-0.182109
2826.61	0.2859
2827.93	0.343529
2829.25	-0.136355
2830.58	0.615775
2831.9	0.122346
2833.23	0.591453
2834.55	0.777174
2835.87	0.707712
2837.19	0.156755
2838.52	0.638343
2839.84	0.582117
2841.16	0.653243
2842.48	0.823617
2843.8	0.867261
2845.12	0.911495
2846.44	0.984505
2847.77	1.12849
2849.08	0.537555
2850.4	1.20431
2851.73	1.09329
2853.05	1.13734
2854.36	1.25171
2855.68	1.30939
2857	0.985606
2858.32	1.33994
2859.64	1.46819
2860.96	1.46919
2862.28	1.49817
2863.59	1.6962
2864.91	1.58348
2866.23	2.17612
2867.55	2.04941
2868.86	2.31792
2870.18	2.43161
2871.5	2.34809
2872.81	2.22208
2874.13	2.70138
2875.44	2.23577
2876.76	2.89594
2878.07	2.82301
2879.39	2.9749
2880.7	2.77548
2882.02	2.82984
2883.33	2.81484
2884.65	2.63219
2885.96	2.73091
2887.28	2.73141
2888.59	2.45091
2889.9	2.47852
2891.21	2.56149
2892.53	2.71395
2893.84	2.85209
2895.15	2.87838
2896.46	2.80733
2897.78	2.68122
2899.09	2.86382
2900.4	3.089
2901.71	3.14667
2903.02	2.95274
2904.33	3.31841
2905.64	3.43252
2906.95	3.26734
2908.26	3.29865
2909.57	3.58251
2910.88	4.0069
2912.19	3.6896
2913.5	3.88953
2914.81	3.92028
2916.12	4.4255
2917.43	4.49524
2918.73	4.67594
2920.04	4.45073
2921.35	4.89735
2922.66	4.7018
2923.96	4.85699
2925.27	4.85942
2926.58	5.37963
2927.88	5.04717
2929.19	5.02189
2930.5	4.80037
2931.8	5.47308
2933.11	4.87344
2934.41	5.41993
2935.72	5.15583
2937.02	5.11548
2938.33	4.82374
2939.63	4.78377
2940.94	4.92587
2942.24	4.78922
2943.54	4.55573
2944.85	4.65883
2946.15	4.41338
2947.45	4.28019
2948.76	3.97871
2950.06	4.08209
2951.36	3.80589
2952.66	3.94811
2953.97	4.18705
2955.27	3.48765
2956.57	3.54491
2957.87	3.85575
2959.17	3.53893
2960.47	3.35023
2961.77	3.6256
2963.07	3.80385
2964.37	3.39223
2965.67	3.2317
2966.97	3.15391
2968.27	3.5107
2969.57	3.41699
2970.87	3.18241
2972.17	2.99014
2973.47	2.8543
2974.77	3.01396
2976.07	2.69444
2977.36	2.55678
2978.66	2.1783
2979.96	2.60087
2981.26	2.29028
2982.55	2.37323
2983.85	2.2876
2985.15	1.96395
2986.44	1.97888
2987.74	2.00901
2989.03	1.92751
2990.33	1.53701
2991.63	1.53957
2992.92	1.79422
2994.21	1.62617
2995.51	1.13416
2996.8	1.48428
2998.1	1.45493
2999.39	1.45379
3000.69	1.41096
3001.98	1.43867
3003.27	1.14438
3004.57	1.01839
3005.86	1.10228
3007.15	0.87759
3008.44	1.19803
3009.74	0.664347
3011.03	0.857292
3012.32	0.686516
3013.61	0.75308
3014.9	0.79192
3016.19	0.817265
3017.48	0.87097
3018.78	0.479707
3020.07	0.756423
3021.36	0.810018
3022.65	0.390544
3023.94	0.817392
3025.23	0.424763
3026.51	0.406582
3027.8	0.554756
3029.09	0.482265
3030.38	0.466261
3031.67	0.506635
3032.96	0.202634
3034.24	0.520068
3035.53	0.505696
3036.82	0.421286
3038.11	0.611008
3039.39	0.385886
3040.68	0.366084
3041.97	0.496475
3043.25	0.585217
3044.54	0.551099
3045.83	0.545654
3047.11	0.746816
3048.4	0.635564
3049.68	0.635296
3050.97	0.540753
3052.25	0.637873
3053.54	0.680351
3054.82	0.381145
3056.11	0.558489
3057.39	0.557487
3058.67	0.909946
3059.96	0.798692
3061.24	0.347563
3062.52	0.509629
3063.81	0.251081
3065.09	0.428808
3066.37	0.43082
3067.65	0.719091
3068.94	0.422945
3070.22	0.20802
3071.5	0.631545
3072.78	0.700317
3074.06	0.536777
3075.34	0.372464
3076.62	0.275815
3077.9	0.450923
3079.18	0.178884
3080.46	0.504946
3081.74	0.479437
3083.02	0.156413
3084.3	0.172971
3085.58	0.148779
3086.86	0.137695
3088.14	-0.104807
3089.42	0.330658
3090.69	-0.0893807
3091.97	-0.0482292
3093.25	0.101407
3094.53	-0.155734
3095.8	0.197454
3097.08	0.306456
3098.36	0.428789
3099.63	0.30692
3100.91	0.130721
3102.19	0.171209
3103.46	-0.0183969
3104.74	0.428524
3106.01	0.280281
3107.29	0.349208
3108.56	-0.122479
3109.84	-0.0115352
3111.11	0.167815
3112.39	-0.194017
3113.66	-0.217159
3114.94	0.0849066
3116.21	0.142599
3117.48	0.118115
3118.76	0.201121
3120.03	0.242371
3121.3	-0.110492
3122.57	-0.0978317
3123.85	0.266696
3125.12	0.23822
3126.39	0.0204902
3127.66	-0.0344267
3128.93	0.0462046
3130.21	-0.251668
3131.48	-0.0628133
3132.75	-0.131083
3134.02	-0.0781903
3135.29	0.203573
3136.56	0.201052
3137.83	-0.0717144
3139.1	0.0191641
3140.37	0.176867
3141.64	0.0786395
3142.91	0.0209293
3144.17	-0.0633368
3145.44	0.0943069
3146.71	-0.150094
3147.98	-0.0454998
3149.25	-0.0210814
