200.523	-0.214468
202.339	-0.201013
204.154	-0.186355
205.967	0.607491
207.781	0.331337
209.596	0.58969
211.409	0.312571
213.222	0.374529
215.034	0.0474739
216.848	0.0598383
218.659	0.290307
220.47	0.0370827
222.281	0.0511618
224.091	-0.175653
225.903	-0.280832
227.713	0.242265
229.522	-0.00798607
231.331	0.224292
233.14	-0.339872
234.948	0.350733
236.756	0.246614
238.566	-8.29697e-005
240.373	-0.124004
242.18	0.23629
243.986	-0.125601
245.792	0.260357
247.598	-0.00658894
249.403	0.762368
251.208	0.24888
253.013	0.240104
254.818	0.0369034
256.624	-0.479756
258.427	0.306159
260.231	-0.0151424
262.034	0.0749397
263.836	0.311088
265.638	0.379631
267.44	0.44856
269.242	0.324441
271.043	0.609457
272.844	-0.287911
274.645	-0.0291758
276.445	0.0111828
278.245	0.00176048
280.044	-0.418793
281.843	0.290685
283.642	0.251981
285.44	-0.460563
287.238	0.147711
289.036	-0.108313
290.833	0.2357
292.63	-0.0898228
294.425	0.351924
296.221	0.0534191
298.017	0.353629
299.813	0.176287
301.608	0.45272
303.403	0.0835857
305.198	0.572806
306.992	0.55985
308.786	-0.120683
310.579	0.153035
312.371	-0.048728
314.163	0.298776
315.956	0.171673
317.748	0.0461674
319.54	-0.0303907
321.331	0.418381
323.122	0.439076
324.911	-0.0409231
326.701	0.385965
328.491	0.0725193
330.281	-0.00281525
332.071	0.255604
333.857	0.967299
335.646	0.480845
337.434	0.82978
339.222	0.147977
341.008	-0.152143
342.795	0.479557
344.582	0.441689
346.369	0.452098
348.153	0.725794
349.939	0.570149
351.724	0.342999
353.51	0.234756
355.292	0.173339
357.077	0.277724
358.861	0.595285
360.643	-0.184015
362.426	0.726501
364.21	0.350983
365.99	-0.475922
367.773	-0.257696
369.555	0.243904
371.335	-0.203698
373.116	-0.319695
374.897	-0.0812712
376.676	0.72317
378.456	0.205932
380.236	0.467916
382.014	-0.328653
383.793	0.170687
385.57	0.0828505
387.349	-0.0978212
389.127	0.380324
390.903	0.342413
392.681	-0.0704994
394.456	-0.0366697
396.233	0.584604
398.007	0.360502
399.784	0.371097
401.56	0.475247
403.333	0.132539
405.108	0.423331
406.881	-0.155469
408.656	0.0636606
410.428	-0.0227404
412.202	0.806185
413.973	-0.030777
415.746	0.705091
417.517	0.43271
419.29	0.60674
421.06	0.569786
422.831	0.110053
424.601	-0.326942
426.37	-0.0604601
428.141	0.0879173
429.909	-0.0223551
431.679	0.336781
433.447	-0.0783548
435.216	-0.0472708
436.983	0.101112
438.75	0.295799
440.519	0.09025
442.285	0.30525
444.052	-0.185139
445.818	-0.114258
447.583	0.119319
449.349	-0.349404
451.114	0.654602
452.878	0.326639
454.643	-0.350467
456.407	-0.0243855
458.169	0.324331
459.934	0.0908194
461.696	0.137279
463.458	0.417445
465.222	0.536886
466.983	0.519444
468.744	-0.216175
470.507	0.235162
472.267	0.384969
474.027	0.138443
475.787	0.0997715
477.548	0.571704
479.307	0.529544
481.065	0.276879
482.823	0.234004
484.583	0.494939
486.341	0.338308
488.098	0.183407
489.855	0.473235
491.612	0.367568
493.37	0.5894
495.126	-0.0301628
496.881	0.472665
498.636	-0.0548239
500.391	0.471657
502.148	0.599439
503.902	0.162847
505.656	0.523776
507.409	0.719254
509.162	0.631183
510.915	0.259237
512.668	0.497608
514.42	0.405212
516.174	0.711535
517.925	1.25175
519.676	0.521214
521.427	0.472016
523.178	0.915576
524.928	0.560454
526.678	0.53409
528.427	0.578094
530.176	0.176688
531.925	0.314014
533.673	0.778138
535.422	0.515471
537.169	0.555752
538.917	0.89817
540.664	1.14548
542.411	0.57625
544.157	0.473291
545.903	-0.140622
547.649	0.77874
549.395	0.490776
551.14	0.319415
552.884	0.773071
554.629	0.555865
556.373	0.431667
558.117	0.284984
559.86	0.208107
561.603	0.292962
563.346	0.0561514
565.089	-0.156842
566.831	0.297089
568.573	0.0394897
570.314	0.40261
572.053	0.216092
573.794	-0.0148277
575.534	0.902781
577.274	0.537213
579.014	0.44804
580.754	0.152724
582.493	0.54656
584.23	0.250553
585.968	0.459369
587.706	0.299106
589.444	0.0686932
591.181	0.274589
592.919	0.0198698
594.653	0.0871143
596.39	0.361432
598.126	0.382622
599.862	0.449481
601.595	0.331542
603.33	0.235511
605.065	0.000324249
606.8	0.292702
608.532	-0.104846
610.266	0.62248
611.999	0.592476
613.732	-0.00997734
615.463	-0.382198
617.196	0.345653
618.928	0.408336
620.66	0.0350847
622.389	-0.407425
624.12	-0.00427341
625.851	0.0785055
627.58	0.344727
629.31	-0.483007
631.04	0.265959
632.767	0.0125675
634.497	0.399024
636.223	0.465703
637.952	-0.0626745
639.68	0.410935
641.406	0.585025
643.134	0.52879
644.861	0.31218
646.586	0.119011
648.312	0.200512
650.037	0.648176
651.762	0.621951
653.486	0.0991011
655.211	0.647616
656.936	-0.0760717
658.659	0.407646
660.383	0.367146
662.105	0.27948
663.829	0.0754118
665.55	1.10366
667.273	0.598619
668.994	0.229954
670.716	0.685351
672.436	0.410418
674.158	0.938839
675.877	0.530214
677.598	0.0759993
679.317	0.309999
681.035	0.405643
682.755	0.108756
684.473	0.845575
686.192	0.752223
687.909	-0.102669
689.628	0.469429
691.344	0.534177
693.06	0.368011
694.778	0.454543
696.493	0.793477
698.211	0.647717
699.925	0.892115
701.64	1.06621
703.356	0.572711
705.07	0.469675
706.783	0.917095
708.498	0.721348
710.211	0.685956
711.924	0.741851
713.638	0.568621
715.35	0.532634
717.061	0.724962
718.774	0.643271
720.485	1.10885
722.196	1.09556
723.906	1.17333
725.618	0.864372
727.328	0.669252
729.037	0.542172
730.746	0.936321
732.456	1.08021
734.165	1.02003
735.873	1.14081
737.58	1.14879
739.289	1.49573
740.997	0.851218
742.703	0.952061
744.41	1.32413
746.116	0.932023
747.823	0.99135
749.529	0.781928
751.234	0.753606
752.938	1.33373
754.643	1.28533
756.347	0.945692
758.051	1.28262
759.756	1.7339
761.459	1.37514
763.162	1.17426
764.865	1.37927
766.567	1.1768
768.269	1.58279
769.97	1.46698
771.671	1.10052
773.372	2.15739
775.073	1.49527
776.773	1.35376
778.473	1.21341
780.174	2.04688
781.874	1.81853
783.573	1.97486
785.271	1.56427
786.97	2.21532
788.668	1.82212
790.365	1.3583
792.063	1.66109
793.76	1.71351
795.456	1.56257
797.153	1.255
798.847	1.062
800.543	1.7486
802.238	1.82836
803.933	1.14405
805.628	1.33683
807.322	1.79832
809.017	1.65189
810.71	1.66165
812.404	2.27595
814.097	1.94772
815.79	1.03776
817.483	1.76207
819.173	1.88183
820.865	1.5996
822.556	1.9429
824.248	1.90742
825.939	1.60593
827.629	1.574
829.318	1.07693
831.008	1.76294
832.697	1.38246
834.387	1.87288
836.076	1.20492
837.765	1.6965
839.451	1.74094
841.139	1.02448
842.827	1.22249
844.514	1.84474
846.2	1.66326
847.886	1.34915
849.573	1.23829
851.259	1.24145
852.943	1.29114
854.629	1.54371
856.314	0.920565
857.997	1.39693
859.682	1.01752
861.366	0.793585
863.05	1.08615
864.732	1.55814
866.415	1.48855
868.098	1.30557
869.779	0.874017
871.461	1.34432
873.141	1.18289
874.823	1.31467
876.505	0.363269
878.184	0.968968
879.865	0.852386
881.545	0.780602
883.223	1.00166
884.903	0.725095
886.581	1.07933
888.26	0.732557
889.937	0.542557
891.616	0.599381
893.294	1.15041
894.97	1.1595
896.648	1.12262
898.323	1.30946
900	0.866972
901.675	1.41055
903.351	0.900622
905.026	1.03989
906.701	1.15668
908.375	1.63047
910.05	1.10192
911.723	0.731038
913.398	0.183692
915.07	1.54714
916.742	0.734216
918.415	1.14161
920.087	1.08341
921.76	1.02582
923.43	0.593615
925.103	1.37835
926.773	1.23662
928.443	1.05242
930.114	0.251555
931.783	1.01805
933.454	0.791849
935.123	1.18347
936.791	0.627047
938.461	0.909516
940.128	0.421135
941.796	1.32347
943.464	1.27804
945.131	0.636489
946.797	0.788369
948.465	1.15935
950.131	0.336783
951.797	0.528467
953.462	0.631898
955.128	0.868975
956.793	0.446975
958.457	0.623212
960.121	0.669621
961.786	0.872063
963.45	0.942014
965.113	0.546022
966.775	0.501328
968.44	0.852445
970.102	-0.103594
971.763	-0.418556
973.425	-0.290714
975.086	0.457474
976.748	0.433232
978.409	0.100574
980.069	0.332563
981.729	0.564325
983.388	0.916736
985.048	0.182679
986.708	1.01842
988.367	0.834332
990.025	0.605056
991.683	0.441759
993.341	0.234344
994.998	0.821905
996.655	0.438211
998.312	0.78253
999.969	0.883842
1001.62	0.786478
1003.28	0.556816
1004.94	0.327188
1006.59	0.0758095
1008.25	0.505629
1009.9	0.386552
1011.56	-0.32406
1013.21	0.0842972
1014.86	0.536316
1016.52	0.28768
1018.17	0.389841
1019.82	0.798812
1021.48	0.312044
1023.13	0.700843
1024.78	0.303606
1026.43	0.125495
1028.08	0.49367
1029.73	0.380563
1031.38	-0.388748
1033.03	0.172821
1034.68	0.776026
1036.33	0.39614
1037.98	-0.0710135
1039.63	0.463782
1041.28	0.389356
1042.93	-0.27069
1044.57	0.505394
1046.22	-0.433263
1047.87	0.975489
1049.52	0.0401106
1051.16	0.3003
1052.81	0.0398865
1054.45	0.105627
1056.1	0.0192537
1057.75	0.345649
1059.39	-0.0240307
1061.04	0.649389
1062.68	0.495876
1064.32	0.0153999
1065.97	-0.0745401
1067.61	0.269306
1069.25	0.438289
1070.9	-0.240351
1072.54	0.557528
1074.18	0.357112
1075.82	-0.189277
1077.47	0.0247583
1079.11	0.00126934
1080.75	-0.325153
1082.39	0.0856762
1084.03	0.105408
1085.67	0.188755
1087.31	0.0319395
1088.95	0.263261
1090.59	0.146557
1092.22	0.396507
1093.86	0.602356
1095.5	0.570695
1097.14	0.0656271
1098.78	0.273375
1100.41	0.20257
1102.05	-0.361396
1103.69	0.689928
1105.32	0.365439
1106.96	-0.152043
1108.59	0.147504
1110.23	0.0159826
1111.86	-0.267256
1113.5	0.24319
1115.13	-0.53605
1116.77	0.422877
1118.4	0.137259
1120.03	0.945218
1121.67	-0.302344
1123.3	0.271424
1124.93	0.31075
1126.56	0.693048
1128.19	0.0494518
1129.83	0.796478
1131.46	0.218369
1133.09	0.623982
1134.72	0.153005
1136.35	0.814304
1137.98	0.40601
1139.61	-0.173992
1141.24	0.249051
1142.86	0.671251
1144.49	0.0907717
1146.12	0.492098
1147.75	-0.405953
1149.38	-0.0883427
1151	0.250825
1152.63	-0.283254
1154.26	-0.242548
1155.88	0.244732
1157.51	0.263542
1159.14	-0.312845
1160.76	0.0261717
1162.39	0.259753
1164.01	-0.186164
1165.63	0.282613
1167.26	0.0920334
1168.88	0.0706034
1170.51	0.642793
1172.13	0.235538
1173.75	0.357904
1175.38	0.64872
1177	-0.121272
1178.62	-0.106145
1180.24	0.248232
1181.86	0.201044
1183.48	0.429341
1185.1	-0.272289
1186.72	0.0818844
1188.34	-0.536409
1189.96	0.256926
1191.58	0.0363531
1193.2	0.256516
1194.82	0.202443
1196.44	0.190502
1198.06	0.11664
1199.68	0.0654306
1201.29	0.058217
1202.91	0.429189
1204.53	0.0925474
1206.14	0.738649
1207.76	0.175743
1209.38	0.280704
1210.99	0.572598
1212.61	0.529176
1214.22	0.629611
1215.84	-0.021697
1217.45	0.699427
1219.07	-0.202595
1220.68	0.64084
1222.29	0.653728
1223.91	0.605606
1225.52	1.15939
1227.13	0.596551
1228.74	0.945632
1230.36	1.02685
1231.97	0.985152
1233.58	0.696611
1235.19	0.843287
1236.8	0.887759
1238.41	0.974547
1240.02	1.10336
1241.63	0.69463
1243.24	0.678474
1244.85	0.951289
1246.46	1.07836
1248.07	1.86664
1249.67	0.6678
1251.28	1.02053
1252.89	1.26997
1254.5	1.08572
1256.1	0.985255
1257.71	0.885935
1259.32	1.13943
1260.92	1.16623
1262.53	1.35915
1264.13	0.9929
1265.74	0.605289
1267.34	1.06666
1268.95	1.29929
1270.55	1.07484
1272.15	1.36773
1273.76	1.39008
1275.36	0.561631
1276.97	0.685955
1278.57	1.34803
1280.17	0.932323
1281.77	1.26177
1283.37	1.36349
1284.97	1.25887
1286.58	1.03116
1288.18	1.21791
1289.78	1.17814
1291.38	1.53146
1292.98	1.28543
1294.58	1.08007
1296.18	1.61705
1297.78	1.11994
1299.37	1.92148
1300.97	1.25677
1302.57	1.56004
1304.17	1.59431
1305.77	1.9773
1307.36	1.14735
1308.96	1.4882
1310.55	1.68489
1312.15	1.2879
1313.75	1.52641
1315.34	1.80633
1316.94	1.14756
1318.53	1.6328
1320.13	1.44444
1321.72	2.00912
1323.32	2.44911
1324.91	1.44326
1326.5	1.87973
1328.1	1.21986
1329.69	1.53406
1331.28	1.88954
1332.87	2.06468
1334.47	2.06013
1336.06	1.57294
1337.65	1.46998
1339.24	1.56803
1340.83	1.18093
1342.42	1.49674
1344.01	1.5487
1345.6	1.65973
1347.19	1.48998
1348.78	1.36233
1350.37	1.45743
1351.96	1.75487
1353.54	1.65419
1355.13	1.45492
1356.72	1.31604
1358.31	1.35661
1359.89	1.31636
1361.48	1.0955
1363.07	1.15336
1364.65	1.45007
1366.24	0.969652
1367.82	1.62559
1369.41	1.10771
1370.99	0.890016
1372.58	1.23083
1374.16	1.37367
1375.75	0.940103
1377.33	1.36224
1378.91	0.68946
1380.5	1.50809
1382.08	1.07196
1383.66	1.2513
1385.25	1.52895
1386.83	1.22977
1388.41	1.48705
1389.99	0.990489
1391.57	0.832462
1393.15	0.595898
1394.73	0.776277
1396.31	1.29348
1397.89	1.47272
1399.47	0.996993
1401.05	0.857479
1402.63	0.915524
1404.21	0.241526
1405.78	1.11099
1407.36	0.893408
1408.94	1.05218
1410.52	1.27058
1412.1	1.1926
1413.67	1.05488
1415.25	1.70564
1416.82	1.72389
1418.4	0.61834
1419.98	0.558332
1421.55	0.952223
1423.13	0.579597
1424.7	0.740003
1426.28	0.488189
1427.85	1.5162
1429.42	1.50079
1431	1.18927
1432.57	1.11289
1434.14	1.05533
1435.71	1.1154
1437.29	2.09969
1438.86	1.43311
1440.43	1.57352
1442	1.479
1443.57	2.03371
1445.14	1.66509
1446.71	1.92558
1448.28	1.51791
1449.85	2.7422
1451.42	1.78475
1452.99	1.96815
1454.56	2.07332
1456.13	1.86366
1457.7	1.55486
1459.26	1.61869
1460.83	1.30697
1462.4	1.42642
1463.97	1.09196
1465.54	1.75919
1467.1	1.87536
1468.67	1.54021
1470.23	1.32401
1471.8	1.05019
1473.36	0.640216
1474.93	1.58414
1476.49	1.43021
1478.06	0.649066
1479.62	0.828558
1481.19	0.870717
1482.75	1.4223
1484.31	0.229745
1485.88	0.388991
1487.44	0.136203
1489	0.508897
1490.56	0.48827
1492.13	0.895826
1493.69	1.08581
1495.25	0.337306
1496.81	0.641791
1498.37	0.361555
1499.93	0.218564
1501.49	0.65921
1503.05	0.789704
1504.61	0.920753
1506.17	0.896932
1507.73	0.137715
1509.28	0.76999
1510.84	0.396454
1512.4	0.485556
1513.96	0.208434
1515.52	0.508811
1517.07	0.770587
1518.63	0.917415
1520.19	0.240852
1521.74	0.331263
1523.3	0.898992
1524.85	0.013814
1526.41	0.617086
1527.96	0.456325
1529.52	0.694802
1531.07	1.08447
1532.63	0.544531
1534.18	0.29086
1535.73	0.719601
1537.29	0.883749
1538.84	0.727329
1540.39	0.948678
1541.94	1.07549
1543.5	0.675025
1545.05	0.425568
1546.6	1.15304
1548.15	1.63496
1549.7	1.29119
1551.25	0.967027
1552.8	1.3735
1554.35	0.883081
1555.9	0.898975
1557.45	1.43912
1559	1.04774
1560.55	0.975486
1562.1	1.48302
1563.65	1.58123
1565.19	1.25084
1566.74	1.5736
1568.29	1.82155
1569.83	1.58385
1571.38	1.47642
1572.93	1.66737
1574.47	1.70885
1576.02	1.65702
1577.56	1.64273
1579.11	1.83422
1580.66	2.23176
1582.2	1.7151
1583.74	2.09573
1585.29	1.99146
1586.83	1.55105
1588.38	1.65281
1589.92	2.16612
1591.46	2.41731
1593.01	1.24506
1594.55	1.40169
1596.09	1.59593
1597.63	1.58454
1599.17	2.43628
1600.71	1.56366
1602.25	2.49241
1603.79	1.71323
1605.34	2.07863
1606.88	1.86032
1608.41	1.69637
1609.95	1.98123
1611.49	1.66245
1613.03	1.45471
1614.57	1.73393
1616.11	1.82484
1617.65	2.1223
1619.18	2.00847
1620.72	1.44676
1622.26	1.50454
1623.79	1.43201
1625.33	2.07081
1626.87	1.60443
1628.4	0.931269
1629.94	1.64115
1631.48	1.17191
1633.01	1.73011
1634.55	1.57864
1636.08	1.46542
1637.61	1.57696
1639.15	1.85678
1640.68	1.33505
1642.21	1.61416
1643.75	1.55681
1645.28	1.74027
1646.81	1.2718
1648.34	1.37974
1649.88	1.37649
1651.41	1.39272
1652.94	1.91086
1654.47	1.52117
1656	1.24354
1657.53	1.28098
1659.06	0.891679
1660.59	1.33458
1662.12	1.51663
1663.65	1.53099
1665.18	1.69255
1666.71	1.94648
1668.24	1.86915
1669.76	1.49847
1671.29	1.18481
1672.82	1.70123
1674.35	1.02082
1675.87	0.892824
1677.4	0.580148
1678.93	0.818637
1680.45	0.945644
1681.98	0.814585
1683.5	1.17917
1685.03	0.919454
1686.55	0.807092
1688.08	1.02516
1689.6	0.730431
1691.13	1.15027
1692.65	0.691347
1694.17	0.507182
1695.7	0.725233
1697.22	0.613934
1698.74	0.575484
1700.27	0.390696
1701.79	-0.140819
1703.31	0.585369
1704.83	0.545162
1706.35	0.559189
1707.87	0.463868
1709.39	0.731881
1710.91	0.0195675
1712.43	0.287724
1713.95	0.120759
1715.47	0.33426
1716.99	0.456903
1718.51	0.68765
1720.03	-0.219641
1721.55	0.0835257
1723.07	0.44078
1724.58	-0.138439
1726.1	-0.0136175
1727.62	0.634203
1729.13	0.0948009
1730.65	0.150348
1732.17	0.223
1733.68	-0.234786
1735.2	0.339591
1736.72	0.687236
1738.23	0.558436
1739.74	0.475484
1741.26	0.0749998
1742.77	0.318934
1744.29	-0.105174
1745.8	0.589355
1747.32	0.364713
1748.83	0.580469
1750.34	0.0430984
1751.85	0.190851
1753.37	0.197378
1754.88	0.416916
1756.39	0.130539
1757.9	-0.12583
1759.41	0.145238
1760.92	0.254473
1762.44	0.294496
1763.95	0.0397091
1765.46	0.286139
1766.96	-0.219328
1768.47	0.333307
1769.98	0.157871
1771.49	0.177911
1773	0.089798
1774.51	0.253294
1776.02	-0.0356817
1777.53	0.0910006
1779.03	-0.0258646
1780.54	-0.0745497
1782.05	0.139879
1783.55	-0.135401
1785.06	0.322162
1786.57	-0.00126457
1788.07	0.186024
1789.58	-0.159047
1791.08	-0.11125
1792.59	0.499657
1794.09	0.326976
1795.6	0.121812
1797.1	-0.0415964
1798.61	0.0564461
1800.11	0.347557
1801.61	0.180215
1803.12	-0.0340118
1804.62	-0.0299282
1806.12	0.0242119
1807.62	0.0905857
1809.12	0.136094
1810.63	0.340461
1812.13	0.0833359
1813.63	0.0915709
1815.13	0.52153
1816.63	0.247494
1818.13	-0.0427961
1819.63	0.382791
1821.13	0.065114
1822.63	0.077137
1824.13	0.16585
1825.63	0.0554228
1827.13	0.13465
1828.62	0.478634
1830.12	0.0731306
1831.62	0.392397
1833.12	0.106172
1834.61	0.253673
1836.11	0.287077
1837.61	-0.00821114
1839.1	-0.0923424
1840.6	0.274392
1842.09	0.168794
1843.59	0.246113
1845.09	-0.0941248
1846.58	-0.265093
1848.08	-0.250475
1849.57	-0.38947
1851.06	-0.315394
1852.56	-0.0196657
1854.05	0.22677
1855.54	0.288818
1857.04	0.203358
1858.53	-0.234921
1860.02	0.239135
1861.51	-0.131711
1863.01	0.0972166
1864.5	0.0958157
1865.99	0.144864
1867.48	0.0620728
1868.97	0.367643
1870.46	0.163628
1871.95	-0.0253258
1873.44	0.234713
1874.93	0.580132
1876.42	0.349957
1877.91	0.357391
1879.4	0.103055
1880.89	-0.0209236
1882.37	-0.0639949
1882.46	-0.0661778
1883.95	0.0724201
1885.45	0.00111961
1886.94	0.625808
1888.43	0.396351
1889.93	0.289064
1891.42	-0.0433474
1892.91	0.043118
1894.41	0.444095
1895.9	-0.161955
1897.39	0.432556
1898.88	0.29666
1900.37	-0.101117
1901.86	0.108559
1903.36	0.107902
1904.85	0.0885625
1906.34	0.0163832
1907.83	-0.281533
1909.32	0.167708
1910.81	0.0968623
1912.29	0.130942
1913.78	0.269585
1915.27	0.547
1916.76	0.19988
1918.25	0.268417
1919.74	0.0765958
1921.23	0.283178
1922.71	0.126338
1924.2	0.264644
1925.69	0.230812
1927.17	0.249881
1928.66	0.0964117
1930.15	-0.0224648
1931.63	0.0311422
1933.12	-0.141595
1934.6	-0.177286
1936.09	0.01053
1937.57	-0.235196
1939.06	0.33108
1940.54	-0.242826
1942.02	0.375457
1943.51	-0.161697
1944.99	0.336985
1946.47	0.439207
1947.96	-0.0275354
1949.44	-0.28785
1950.92	0.243265
1952.4	0.0502329
1953.88	0.407192
1955.37	0.299593
1956.85	-0.168164
1958.33	0.120396
1959.81	-0.0367255
1961.29	-0.0560427
1962.77	0.439053
1964.25	0.282524
1965.73	0.211316
1967.21	-0.202744
1968.69	0.221257
1970.16	0.0288148
1971.64	0.160934
1973.12	-0.168053
1974.6	0.0663652
1976.08	0.198337
1977.55	0.296217
1979.03	-0.048512
1980.51	0.0324516
1981.98	-0.192822
1983.46	0.227466
1984.94	-0.066072
1986.41	0.0307107
1987.89	0.279843
1989.36	0.15629
1990.84	-0.0342016
1992.31	-0.139091
1993.79	-0.0232439
1995.26	0.515707
1996.73	0.446518
1998.21	0.292916
1999.68	0.122163
2001.15	0.271642
2002.63	0.049458
2004.1	-0.240079
2005.57	-0.0235605
2007.04	-0.210859
2008.51	0.175278
2009.99	0.393643
2011.46	0.393593
2012.93	-0.0271711
2014.4	0.275464
2015.87	0.274456
2017.34	-0.14782
2018.81	0.0347214
2020.28	0.384625
2021.75	0.314175
2023.21	0.344783
2024.68	-0.412549
2026.15	-0.0613232
2027.62	0.0897179
2029.09	-0.177274
2030.56	0.395608
2032.02	0.483009
2033.49	0.151257
2034.96	-0.0127993
2036.42	0.14189
2037.89	0.228992
2039.36	-0.255646
2040.82	0.318476
2042.29	0.119732
2043.75	-0.0616751
2045.22	-0.292935
2046.68	-0.0355458
2048.14	0.373997
2049.61	-0.176935
2051.07	0.0295091
2052.54	0.285366
2054	0.455362
2055.46	0.320218
2056.93	0.504174
2058.39	0.164868
2059.85	0.0614762
2061.31	0.00900698
2062.77	0.243419
2064.23	0.192496
2065.7	0.327586
2067.16	0.0595303
2068.62	0.29689
2070.08	0.265266
2071.54	0.301036
2073	0.336695
2074.46	0.220577
2075.92	0.137828
2077.38	0.239997
2078.83	0.409173
2080.29	0.00540972
2081.75	0.426238
2083.21	0.358171
2084.67	0.205334
2086.12	-0.2172
2087.58	-0.169117
2089.04	-0.0374041
2090.49	0.37955
2091.95	0.241976
2093.41	0.238712
2094.86	0.218461
2096.32	0.533008
2097.77	0.226838
2099.23	0.305478
2100.68	-0.0343833
2102.14	0.0107765
2103.59	0.307039
2105.05	0.253572
2106.5	0.168016
2107.95	0.366995
2109.41	0.516186
2110.86	0.281436
2112.31	0.562274
2113.76	0.291732
2115.21	-0.0131421
2116.67	0.313448
2118.12	0.456984
2119.57	0.418854
2121.02	0.465405
2122.47	0.629748
2123.92	0.579788
2125.37	0.580206
2126.82	0.563851
2128.27	0.845003
2129.72	0.528195
2131.17	0.59142
2132.62	0.736598
2134.07	0.385242
2135.51	0.530969
2136.96	0.843129
2138.41	0.694073
2139.86	0.596324
2141.31	0.533077
2142.75	0.503932
2144.2	0.955103
2145.65	0.628949
2147.09	0.51751
2148.54	0.869198
2149.98	0.458252
2151.43	0.907865
2152.87	0.296213
2154.32	1.02591
2155.76	0.959849
2157.21	0.529408
2158.65	0.712503
2160.1	1.21152
2161.54	0.78437
2162.98	1.2538
2164.43	1.22752
2165.87	1.08581
2167.31	0.910638
2168.75	0.817442
2170.2	0.789111
2171.64	0.908624
2173.08	1.00976
2174.52	1.04307
2175.96	0.560262
2177.4	1.09204
2178.84	1.19207
2180.28	0.711104
2181.72	0.829446
2183.16	0.782061
2184.6	0.984407
2186.04	0.771008
2187.48	1.09
2188.92	1.25937
2190.36	1.0293
2191.79	1.08194
2193.23	0.584488
2194.67	0.651957
2196.11	0.701189
2197.54	0.648804
2198.98	0.445294
2200.42	0.673135
2201.85	0.734428
2203.29	0.696639
2204.72	0.344802
2206.16	0.789762
2207.59	0.688128
2209.03	0.354611
2210.46	0.120074
2211.9	0.976679
2213.33	0.426435
2214.77	0.603609
2216.2	0.285829
2217.63	0.299341
2219.07	0.478808
2220.5	0.527036
2221.93	0.196313
2223.36	0.178273
2224.8	0.47197
2226.23	0.253706
2227.66	0.428933
2229.09	0.372743
2230.52	0.151905
2231.95	0.439363
2233.39	0.415381
2234.81	0.277632
2236.25	0.304514
2237.67	0.414339
2239.1	0.101437
2240.53	0.279844
2241.96	0.149861
2243.39	0.314559
2244.82	0.234954
2246.25	0.00802183
2247.68	0.530035
2249.1	0.723807
2250.53	0.133356
2251.96	0.0468612
2253.38	0.236229
2254.81	0.0192666
2256.24	0.274655
2257.66	0.239646
2259.09	0.0935459
2260.51	-0.00138044
2261.94	0.0193372
2263.36	0.0739341
2264.79	-0.0173359
2266.21	-0.0276933
2267.64	0.286643
2269.06	0.0145841
2270.49	0.246302
2271.91	0.249732
2273.33	0.49729
2274.76	0.0282731
2276.18	0.276133
2277.6	0.442786
2279.02	0.104221
2280.44	0.466615
2281.87	0.0461774
2283.29	0.229092
2284.71	-0.126385
2286.13	0.546469
2287.55	0.191385
2288.97	0.195783
2290.39	0.0861645
2291.81	0.565187
2293.23	0.243394
2294.65	0.248531
2296.07	-0.0737648
2297.49	0.160377
2298.91	0.394756
2300.33	0.531162
2301.74	-0.13552
2303.16	0.198133
2304.58	0.368128
2306	-0.0694003
2307.41	0.198879
2308.83	0.0888681
2310.25	-0.46571
2311.66	-0.214995
2313.08	-0.161615
2314.5	0.254225
2315.91	0.0452905
2317.33	-0.0478492
2318.74	0.090086
2320.16	-0.118351
2321.57	0.167135
2322.98	0.500718
2324.4	0.205154
2325.81	0.897619
2327.23	1.04374
2328.64	0.200085
2330.05	0.164616
2331.46	0.179319
2332.88	0.0633073
2334.29	0.0303855
2335.7	-0.331297
2337.11	-0.051734
2338.52	0.062448
2339.94	0.274145
2341.35	-0.0571733
2342.76	-0.191583
2344.17	0.149749
2345.58	0.605581
2346.99	0.111096
2348.4	-0.0389857
2349.81	-0.320054
2351.22	-0.241723
2352.62	0.309339
2354.03	-0.00625849
2355.44	0.0693851
2356.85	0.030582
2358.26	0.00809479
2359.67	0.00199509
2361.07	0.25569
2362.48	0.0386434
2363.89	0.0649214
2365.29	-0.248672
2366.7	0.0365396
2368.11	-0.0496883
2369.51	-0.134891
2370.92	0.0390596
2372.32	0.181709
2373.73	0.0835609
2375.13	0.146826
2376.54	0.129297
2377.94	0.255605
2379.35	0.107239
2380.75	0.102162
2382.15	0.0317173
2383.56	0.00868177
2384.96	0.129436
2386.36	0.0425239
2387.76	-0.282842
2389.17	-0.223895
2390.57	0.138694
2391.97	0.0878243
2393.37	0.324317
2394.77	-0.106668
2396.17	0.0515542
2397.58	-0.346048
2398.98	0.162739
2400.38	0.163382
2401.78	0.196075
2403.18	0.117641
2404.58	0.00717688
2405.97	-0.230931
2407.37	0.00637436
2408.77	0.337948
2410.17	-0.0919981
2411.57	0.286673
2412.97	0.127244
2414.37	0.0323439
2415.76	-0.0770941
2417.16	-0.0270715
2418.56	0.166265
2419.95	0.169969
2421.35	0.0468702
2422.75	0.256129
2424.14	-0.121043
2425.54	0.420813
2426.93	-0.368048
2428.33	0.365356
2429.72	0.275397
2431.12	0.249469
2432.51	0.160173
2433.91	0.372118
2435.3	0.201978
2436.7	0.0145888
2438.09	0.191298
2439.48	0.255632
2440.88	0.271471
2442.27	0.27093
2443.66	0.0162358
2445.05	0.0153794
2446.44	-0.191718
2447.84	-0.0659461
2449.23	-0.16207
2450.62	-0.0520902
2452.01	0.20069
2453.4	-0.131484
2454.79	0.154213
2456.18	0.0133352
2457.57	-0.0797715
2458.96	0.206623
2460.35	-0.0135903
2461.74	0.366412
2463.13	0.302933
2464.52	0.159974
2465.91	0.0958228
2467.29	-0.110434
2468.68	0.0463572
2470.07	0.0766702
2471.46	0.453354
2472.85	-0.0689306
2474.23	0.0857396
2475.62	0.491309
2477.01	0.109998
2478.39	-0.00376654
2479.78	-0.242754
2481.16	0.0048666
2482.55	0.393066
2483.93	-0.00250483
2485.32	-0.163505
2486.7	-0.0907645
2488.09	-0.221982
2489.47	0.114038
2490.86	0.0443611
2492.24	0.115189
2493.62	0.233338
2495.01	-0.252588
2496.39	0.069407
2497.77	0.205796
2499.15	0.171992
2500.54	-0.0476408
2501.92	-0.22122
2503.3	0.22235
2504.68	-0.107006
2506.06	0.133921
2507.45	-0.226178
2508.83	0.106459
2510.21	0.300513
2511.59	0.141844
2512.97	0.474683
2514.35	0.348238
2515.73	-0.450725
2517.11	-0.238413
2518.48	0.0811419
2519.86	0.293564
2521.24	0.230634
2522.62	-0.000681877
2524	0.087914
2525.38	0.297679
2526.75	-0.117505
2528.13	-0.364329
2529.51	-0.336226
2530.89	0.240278
2532.26	0.46835
2533.64	0.165829
2535.02	0.015933
2536.39	0.109118
2537.77	-0.0109234
2539.14	-0.162102
2540.52	0.0656776
2541.89	-0.0864658
2543.27	-0.162434
2544.64	0.24774
2546.01	0.325158
2547.39	0.373329
2548.76	0.0581713
2550.14	0.0313287
2551.51	0.398671
2552.88	-0.0542622
2554.25	-0.295586
2555.63	-0.0217385
2557	-0.00636053
2558.37	-0.355034
2559.74	0.160769
2561.11	0.176635
2562.49	0.193054
2563.86	0.164525
2565.23	0.151542
2566.6	-0.0885377
2567.97	0.292807
2569.34	0.0528088
2570.71	0.131074
2572.08	0.497379
2573.45	-0.394359
2574.82	0.10855
2576.18	0.126422
2577.55	-0.249976
2578.92	0.313503
2580.29	0.0579047
2581.66	0.0142393
2583.02	0.212844
2584.39	0.108
2585.76	0.230502
2587.13	-0.0561557
2588.49	0.0665984
2589.86	0.174287
2591.22	-0.00604916
2592.59	0.282976
2593.96	0.495465
2595.32	0.131467
2596.69	0.20582
2598.05	-0.0231743
2599.42	0.216449
2600.78	-0.0427761
2602.14	0.0611558
2603.51	0.286325
2604.87	0.225109
2606.23	-0.243157
2607.6	-0.30419
2608.96	0.221961
2610.32	0.00843382
2611.69	0.125196
2613.05	-0.0299253
2614.41	0.415454
2615.77	-0.355835
2617.13	0.0289335
2618.49	0.368517
2619.86	0.408913
2621.22	0.15085
2622.58	0.566046
2623.94	0.129743
2625.3	0.634118
2626.66	0.36214
2628.02	0.0604477
2629.37	-0.0177035
2630.73	0.365319
2632.09	0.182696
2633.45	-0.267051
2634.81	-0.0481825
2636.17	0.170306
2637.53	-0.130219
2638.88	0.0287848
2640.24	0.0545106
2641.6	-0.0674291
2642.96	-0.0707631
2644.31	0.309903
2645.67	0.468692
2647.02	0.199389
2648.38	0.253972
2649.74	0.131146
2651.09	0.110864
2652.45	0.501554
2653.8	0.246072
2655.16	0.196929
2656.51	0.0755849
2657.86	0.306695
2659.22	0.187244
2660.57	0.360732
2661.93	0.314728
2663.28	0.122199
2664.63	0.133565
2665.98	0.377624
2667.34	-0.0932584
2668.69	-0.141175
2670.04	-0.1597
2671.39	0.927264
2672.75	0.313275
2674.09	-0.00896454
2675.45	0.453431
2676.8	0.350071
2678.15	0.363399
2679.5	0.10195
2680.85	0.508399
2682.2	0.219957
2683.55	0.208013
2684.9	0.399983
2686.25	0.389376
2687.6	0.320619
2688.94	0.337915
2690.29	0.2376
2691.64	0.411479
2692.99	0.192147
2694.34	0.363663
2695.68	0.143492
2697.03	0.054419
2698.38	0.400925
2699.73	0.097188
2701.07	0.330741
2702.42	0.391896
2703.76	0.497519
2705.11	0.139813
2706.45	0.0428977
2707.8	0.250403
2709.15	0.152888
2710.49	0.345395
2711.83	0.450636
2713.18	0.279725
2714.52	0.0795727
2715.87	0.111886
2717.21	0.187734
2718.55	0.16157
2719.9	0.193286
2721.24	0.16641
2722.58	0.197331
2723.93	0.0531783
2725.27	0.0105333
2726.61	0.404218
2727.95	0.346401
2729.29	0.157404
2730.63	0.579442
2731.98	0.172066
2733.32	0.404922
2734.66	0.303331
2736	0.12921
2737.34	0.158843
2738.68	0.232091
2740.02	0.42146
2741.36	0.275953
2742.7	0.551514
2744.03	0.244984
2745.37	0.185075
2746.71	0.357179
2748.05	0.238647
2749.39	0.308869
2750.72	0.350192
2752.06	-0.159219
2753.4	0.0565772
2754.74	0.0405583
2756.07	0.169502
2757.41	0.356423
2758.75	0.152605
2760.08	0.441294
2761.42	0.0501709
2762.76	0.165987
2764.09	0.542514
2765.42	0.499425
2766.76	0.238947
2768.09	0.310437
2769.43	0.438605
2770.76	0.0451016
2772.1	0.401869
2773.43	0.136678
2774.76	0.102114
2776.1	0.0243349
2777.43	-0.312069
2778.76	0.258504
2780.1	0.153268
2781.43	0.235155
2782.76	-0.213997
2784.09	0.0544982
2785.42	-0.0500369
2786.75	0.00325775
2788.09	-0.258031
2789.42	0.0825129
2790.75	0.051661
2792.08	0.22168
2793.41	-0.00823689
2794.74	-0.0522089
2796.07	-0.225026
2797.4	-0.141083
2798.73	-0.0862265
2800.06	-0.103145
2801.39	0.179291
2802.71	0.19038
2804.04	-0.112288
2805.37	0.168967
2806.7	0.150452
2808.03	-0.010829
2809.35	0.0125194
2810.68	0.149436
2812.01	0.215683
2813.33	-0.114322
2814.66	0.124293
2815.99	-0.174635
2817.31	-0.0898509
2818.64	0.15134
2819.96	0.151608
2821.29	0.179845
2822.61	0.235842
2823.94	0.404614
2825.26	0.0913815
2826.59	0.10403
2827.91	0.27284
2829.23	0.300511
2830.56	0.10209
2831.88	-0.0536575
2833.21	0.229366
2834.53	0.342248
2835.85	0.567904
2837.17	0.34023
2838.5	0.508358
2839.82	-0.0308962
2841.14	0.419883
2842.46	0.743566
2843.78	0.700225
2845.1	0.954292
2846.42	1.18063
2847.74	0.870256
2849.06	0.729487
2850.38	1.43652
2851.71	1.06893
2853.03	1.23798
2854.34	1.27947
2855.66	0.925165
2856.98	0.8676
2858.3	1.24795
2859.62	1.30336
2860.94	1.85281
2862.26	1.20179
2863.57	1.66576
2864.89	1.3814
2866.21	1.61909
2867.53	1.82867
2868.84	1.47451
2870.16	1.81163
2871.48	2.28976
2872.79	1.78096
2874.11	1.70855
2875.42	2.40998
2876.74	2.25107
2878.05	2.44335
2879.37	2.45231
2880.68	1.94144
2882	2.09207
2883.31	2.24348
2884.63	2.60625
2885.94	2.18327
2887.26	2.77108
2888.57	2.08135
2889.88	2.07869
2891.19	2.20151
2892.51	2.53392
2893.82	2.10938
2895.13	2.39964
2896.44	2.20043
2897.76	2.51999
2899.07	2.61645
2900.38	2.60166
2901.69	2.68521
2903	2.37728
2904.31	3.24443
2905.62	2.88091
2906.93	3.00741
2908.24	3.20458
2909.55	3.16469
2910.86	3.25125
2912.17	2.93193
2913.48	3.03186
2914.79	3.31265
2916.1	3.54995
2917.41	3.79976
2918.71	3.76869
2920.02	3.8913
2921.33	4.0843
2922.64	3.87291
2923.94	4.0402
2925.25	4.09668
2926.56	4.16772
2927.86	4.09902
2929.17	4.30961
2930.48	4.19816
2931.78	4.01639
2933.09	4.39353
2934.39	4.33729
2935.7	4.42092
2937	4.53262
2938.31	4.23923
2939.61	4.26749
2940.92	3.54163
2942.22	3.65488
2943.53	3.41976
2944.83	3.84274
2946.13	3.37196
2947.43	3.81078
2948.74	3.40998
2950.04	3.04997
2951.34	3.06642
2952.64	3.24931
2953.95	3.10893
2955.25	3.20619
2956.55	3.15016
2957.85	3.13782
2959.15	3.21179
2960.45	2.78395
2961.75	3.1003
2963.05	3.09521
2964.35	3.00545
2965.65	2.67554
2966.95	2.5828
2968.25	2.30607
2969.55	2.90035
2970.85	2.59462
2972.15	2.10609
2973.45	2.12421
2974.75	2.01567
2976.05	2.41344
2977.34	2.57087
2978.64	2.45926
2979.94	2.03644
2981.24	2.10519
2982.53	1.94831
2983.83	2.11517
2985.13	1.97364
2986.42	1.55245
2987.72	1.25906
2989.01	1.64105
2990.31	1.48932
2991.61	1.46366
2992.9	1.5636
2994.19	1.46567
2995.49	1.05777
2996.78	1.33747
2998.08	1.26588
2999.37	1.3769
3000.67	0.927415
3001.96	0.857222
3003.25	0.899539
3004.55	0.465642
3005.84	0.493942
3007.13	0.311745
3008.42	0.534778
3009.72	0.449179
3011.01	0.53072
3012.3	0.234776
3013.59	0.469398
3014.88	0.690058
3016.17	0.590596
3017.46	0.617222
3018.76	0.393816
3020.05	-0.0517783
3021.34	0.225547
3022.63	0.21013
3023.92	0.180021
3025.21	0.0938396
3026.49	0.256922
3027.78	0.0464425
3029.07	0.293503
3030.36	0.182241
3031.65	0.320963
3032.94	0.11538
3034.23	-0.062151
3035.51	0.049746
3036.8	0.325918
3038.09	-0.171314
3039.38	0.321705
3040.66	0.207415
3041.95	0.229858
3043.23	-0.0631065
3044.52	0.466706
3045.81	0.203628
3047.09	0.462063
3048.38	0.13514
3049.66	0.46548
3050.95	0.251264
3052.23	0.228877
3053.52	0.315701
3054.8	0.565678
3056.09	0.48729
3057.37	0.585199
3058.65	0.64139
3059.94	0.343222
3061.22	0.671676
3062.5	0.510986
3063.79	0.419638
3065.07	0.43846
3066.35	0.0914774
3067.63	0.221219
3068.92	0.392167
3070.2	0.358953
3071.48	0.216207
3072.76	0.398815
3074.04	0.226782
3075.32	0.0540571
3076.6	0.0305877
3077.88	0.143199
3079.16	-0.0690198
3080.44	-0.0492496
3081.72	0.229568
3083	-0.100941
3084.28	-0.118857
3085.56	-0.123116
3086.84	0.103025
3088.12	0.111431
3089.4	0.187105
3090.67	-0.11759
3091.95	-0.205219
3093.23	0.385506
3094.51	-0.067935
3095.78	0.238329
3097.06	0.300569
3098.34	-0.00319624
3099.61	-0.212072
3100.89	-0.231245
3102.17	0.115298
3103.44	0.0557284
3104.72	-0.247005
3105.99	0.0193901
3107.27	0.0429306
3108.54	0.270368
3109.82	-0.0426269
3111.09	-0.0164237
3112.37	0.322012
3113.64	-0.0706124
3114.92	-0.395749
3116.19	0.119306
3117.46	0.104954
3118.74	0.293168
3120.01	0.304103
3121.28	0.205763
3122.55	0.47289
3123.83	0.130039
3125.1	-0.0498734
3126.37	0.352744
3127.64	0.160266
3128.91	0.252421
3130.19	0.196129
3131.46	0.139988
3132.73	0.205423
3134	0.108443
3135.27	0.416142
3136.54	0.250802
3137.81	0.085269
3139.08	0.229535
3140.35	0.0100222
3141.62	0.34232
3142.89	0.405596
3144.16	0.361798
3145.42	0.573508
3146.69	0.302928
3147.96	0.127096
3149.23	0.514348
