200.407	1.82219
202.221	1.80408
204.035	1.78776
205.849	0.921725
207.665	0.73799
209.478	0.773263
211.291	0.419477
213.104	0.381047
214.916	0.875846
216.73	1.05478
218.541	1.06447
220.352	0.784771
222.163	1.0631
223.973	0.30286
225.785	0.00348663
227.595	0.47796
229.404	0.97634
231.213	0.653642
233.022	0.789779
234.83	0.492523
236.638	-0.140415
238.448	0.530654
240.255	0.264363
242.062	0.603263
243.868	-0.430858
245.675	-0.0897989
247.48	0.419714
249.286	0.637778
251.091	0.467097
252.896	0.583997
254.702	-0.241254
256.506	-0.0771437
258.31	0.0396757
260.113	-0.46815
261.916	0.447518
263.719	0.329187
265.521	0.139946
267.323	0.62618
269.125	-0.11664
270.926	0.224865
272.727	0.131786
274.527	-0.468495
276.328	0.280231
278.127	-0.0571442
279.927	-0.0103216
281.726	0.155286
283.525	-0.13768
285.323	-0.190839
287.121	0.0197144
288.919	0.326026
290.716	0.58481
292.513	-0.663261
294.31	-0.0660458
296.104	0.364774
297.9	0.509772
299.696	0.129857
301.491	0.156377
303.286	0.540552
305.081	0.422362
306.875	0.518334
308.669	-0.00555706
310.463	0.401073
312.256	0.237133
314.047	0.718019
315.839	0.0579472
317.631	0.233261
319.423	0.553331
321.215	0.589071
323.006	0.649748
324.794	-0.267128
326.585	-0.134184
328.375	0.811301
330.165	0.323204
331.954	0.264242
333.741	0.754157
335.53	0.883529
337.318	0.316924
339.106	0.29892
340.894	-0.19865
342.679	0.116355
344.466	0.526799
346.253	0.36436
348.039	0.155149
349.823	0.448058
351.608	0.26375
353.393	0.461008
355.176	0.561927
356.961	0.18481
358.745	-0.0023613
360.529	0.0241251
362.31	0.0260773
364.093	0.384158
365.876	0.456036
367.657	0.00501347
369.439	0.384129
371.221	0.0985661
373	-0.305178
374.781	0.237104
376.56	0.377054
378.34	0.305116
380.12	0.163674
381.898	0.282655
383.677	0.426365
385.456	0.594819
387.233	0.247511
389.011	0.0661221
390.787	0.63746
392.565	-0.105516
394.34	0.13862
396.117	0.0544863
397.894	0.0880136
399.668	-0.113369
401.444	-0.385485
403.217	0.281459
404.993	-0.296987
406.766	0.345219
408.54	0.658059
410.312	-0.0622587
412.086	0.0392485
413.858	0.375854
415.631	0.26738
417.402	-0.0983334
419.174	-0.463387
420.944	-0.19451
422.716	0.168249
424.486	0.154922
426.257	0.563424
428.025	0.102599
429.794	0.0170393
431.564	0.706082
433.332	0.456642
435.101	-0.0739841
436.868	-0.275978
438.637	0.530689
440.403	0.678863
442.169	0.0979328
443.937	0.500219
445.703	0.361448
447.468	0.385631
449.234	-0.0583153
450.999	0.409856
452.765	-0.00946712
454.528	0.69181
456.292	-0.0296974
458.057	-0.0980406
459.819	0.0665388
461.582	-0.0242577
463.344	0.281625
465.107	-0.246912
466.868	0.48203
468.629	0.749031
470.392	0.460118
472.152	0.683496
473.912	1.37214
475.672	1.3842
477.433	2.02301
479.192	2.40362
480.951	1.92126
482.709	1.1131
484.469	0.981648
486.226	0.945317
487.984	1.16755
489.74	1.20563
491.499	0.70802
493.255	0.490612
495.011	1.04479
496.767	0.827488
498.522	1.33586
500.277	0.648728
502.033	1.2507
503.788	0.51392
505.541	0.668167
507.295	0.609657
509.048	0.926034
510.801	-0.241325
512.553	0.0485373
514.308	0.33707
516.06	1.25943
517.811	0.298709
519.562	0.536661
521.313	0.632718
523.063	0.399455
524.814	0.377489
526.563	0.84818
528.313	1.08396
530.062	0.710113
531.811	0.921852
533.559	0.12608
535.308	0.406296
537.055	0.497825
538.803	0.611226
540.55	0.350142
542.297	-0.120725
544.043	0.47938
545.789	0.566797
547.535	-0.204552
549.281	-0.278405
551.026	0.04177
552.771	-0.332525
554.515	-0.151285
556.259	0.26065
558.003	0.0956039
559.747	0.415148
561.49	0.320297
563.233	0.295148
564.975	0.316548
566.717	0.751987
568.459	-0.0979824
570.2	0.178263
571.942	0.317885
573.68	-0.343926
575.421	-0.155411
577.161	0.241135
578.901	0.570272
580.64	0.624834
582.379	0.610624
584.118	-0.00182724
585.855	0.120245
587.593	0.540323
589.331	0.407248
591.068	0.181234
592.805	-0.390405
594.54	0.0731306
596.277	0.83576
598.013	0.655061
599.749	0.105939
601.484	0.545309
603.217	-0.189545
604.952	-0.0746002
606.687	-0.305579
608.421	0.243758
610.153	-0.378196
611.886	0.400142
613.619	-0.0596991
615.35	0.444019
617.083	0.168563
618.815	0.511215
620.547	0.0743017
622.276	0.300186
624.008	0.159198
625.738	-0.324306
627.467	-0.326921
629.197	0.0371838
630.927	0.289012
632.655	0.405717
634.384	0.318018
636.113	1.2116
637.839	0.460109
639.568	0.391028
641.293	0.547413
643.021	0.0631905
644.748	0.238948
646.473	0.164353
648.2	0.0914335
649.924	0.203018
651.65	1.04497
653.376	0.79985
655.099	0.330077
656.824	0.863394
658.546	0.828853
660.271	-0.00473118
661.993	0.300611
663.716	0.261614
665.438	0.860562
667.161	0.726313
668.881	0.911429
670.604	1.12002
672.324	0.712642
674.045	0.627618
675.765	0.613134
677.486	0.645647
679.204	0.104175
680.925	0.342422
682.643	0.00433064
684.361	0.907013
686.08	0.0585394
687.797	0.5671
689.516	0.683213
691.232	0.453115
692.95	0.798294
694.666	0.866332
696.382	0.933424
698.099	0.40082
699.813	0.304692
701.528	0.368612
703.244	1.1211
704.958	0.746477
706.673	0.371888
708.387	1.12116
710.099	1.02104
711.814	0.600208
713.526	1.18623
715.238	1.10826
716.949	0.893349
718.663	1.15791
720.374	0.852341
722.084	0.114745
723.796	0.538814
725.506	1.37124
727.216	0.702837
728.925	0.489091
730.636	0.978112
732.345	0.876956
734.053	0.911535
735.761	0.697423
737.471	1.02593
739.178	0.835515
740.885	0.87166
742.592	1.67467
744.298	0.924489
746.006	1.81904
747.712	1.27446
749.417	1.51857
751.122	1.06657
752.827	1.08803
754.532	0.773234
756.236	1.56225
757.942	1.54275
759.645	1.41189
761.348	1.93569
763.051	1.82901
764.753	1.94771
766.456	1.65878
768.158	2.02337
769.859	1.59471
771.56	1.66147
773.261	1.72685
774.964	1.99522
776.664	2.69358
778.364	0.951157
780.064	2.05918
781.763	2.06028
783.462	2.19732
785.16	2.24284
786.859	0.905258
788.557	1.37581
790.255	1.1871
791.952	1.56124
793.649	1.84289
795.346	2.19133
797.042	1.72855
798.738	1.85354
800.434	1.61988
802.127	2.01769
803.823	1.47124
805.517	1.7119
807.212	2.19876
808.906	1.96534
810.6	1.88817
812.293	1.72051
813.987	1.82142
815.68	1.74279
817.372	2.22341
819.064	1.76459
820.754	1.57463
822.446	2.09928
824.137	2.26709
825.828	2.2577
827.519	1.73799
829.209	1.57736
830.897	1.9094
832.587	1.95455
834.276	2.715
835.966	2.74129
837.654	2.14254
839.341	2.01093
841.029	2.05641
842.717	2.8379
844.404	2.99345
846.091	2.41208
847.776	2.25682
849.463	2.32744
851.149	2.33335
852.833	2.18423
854.519	2.17033
856.204	2.29103
857.889	1.93874
859.572	1.92178
861.256	1.7905
862.94	2.17565
864.622	2.65002
866.305	1.81623
867.988	1.49997
869.669	1.52142
871.351	1.54256
873.033	1.69885
874.713	1.49407
876.395	1.06353
878.074	1.28739
879.755	1.42091
881.435	1.35093
883.114	1.5512
884.794	0.982936
886.471	1.4518
888.15	1.46773
889.829	1.59494
891.506	1.42764
893.184	1.25931
894.861	1.58522
896.538	1.93199
898.214	1.55848
899.891	1.65593
901.566	2.2229
903.242	1.42288
904.916	1.33983
906.592	1.72587
908.266	2.00008
909.941	1.76223
911.614	2.03741
913.288	1.73481
914.961	1.38872
916.635	1.64225
918.306	1.51847
919.979	1.1957
921.651	1.53765
923.321	1.68108
924.994	2.26758
926.664	1.8837
928.336	1.89903
930.005	1.89346
931.674	1.40315
933.345	2.39126
935.014	2.14405
936.682	1.94138
938.352	2.07034
940.019	2.06812
941.687	2.19943
943.356	1.80192
945.022	2.11038
946.689	1.91015
948.357	1.50949
950.022	1.52644
951.688	0.483229
953.355	2.02109
955.02	1.02376
956.684	0.734607
958.348	1.17604
960.014	1.09067
961.678	0.476462
963.341	0.74548
965.004	1.32307
966.669	0.925285
968.331	0.723996
969.993	1.02969
971.655	0.869966
973.316	0.511599
974.979	1.06115
976.64	0.661332
978.3	1.21389
979.961	1.25843
981.62	1.30266
983.28	0.96934
984.941	0.612122
986.6	1.11637
988.259	0.866444
989.917	1.16842
991.575	0.916947
993.233	0.753926
994.89	1.14301
996.547	0.891949
998.204	0.927778
999.86	1.88886
1001.52	1.85737
1003.17	1.51739
1004.83	1.11158
1006.49	1.56325
1008.14	0.828548
1009.79	1.56542
1011.45	0.656943
1013.1	0.95541
1014.76	0.574847
1016.41	0.873691
1018.06	1.08513
1019.72	0.772185
1021.37	1.29119
1023.02	1.30817
1024.67	1.47902
1026.32	1.43186
1027.97	1.36289
1029.62	1.6429
1031.27	1.87793
1032.92	2.37319
1034.57	1.38262
1036.22	1.96176
1037.87	1.23208
1039.52	1.91833
1041.17	1.62532
1042.82	1.07309
1044.47	1.28349
1046.11	0.909079
1047.76	0.949158
1049.41	1.22961
1051.06	1.57645
1052.7	0.946572
1054.35	1.35979
1055.99	0.64301
1057.64	0.425668
1059.28	0.838353
1060.93	0.750447
1062.57	0.661837
1064.22	0.789849
1065.86	1.54734
1067.5	0.738617
1069.15	1.84138
1070.79	1.35732
1072.43	1.65495
1074.08	1.34523
1075.72	1.42712
1077.36	1.48854
1079	1.57282
1080.64	1.5711
1082.28	1.39593
1083.92	1.87043
1085.56	1.60616
1087.2	1.79511
1088.84	2.26329
1090.48	1.34423
1092.12	1.52804
1093.76	0.80393
1095.39	1.50532
1097.03	1.58106
1098.67	2.41188
1100.31	1.34898
1101.94	1.30034
1103.58	2.11393
1105.22	1.53043
1106.85	1.44232
1108.49	1.31095
1110.12	1.13562
1111.76	1.68967
1113.39	1.36089
1115.03	1.76115
1116.66	1.04472
1118.29	1.76569
1119.93	2.03645
1121.56	2.13658
1123.19	1.72404
1124.82	2.2756
1126.46	1.8652
1128.09	2.63193
1129.72	1.32516
1131.35	1.77237
1132.98	1.51434
1134.61	1.59825
1136.24	1.48918
1137.87	1.33641
1139.5	1.99423
1141.13	1.15599
1142.76	1.23561
1144.39	1.14463
1146.01	1.05436
1147.64	0.965061
1149.27	1.70753
1150.9	0.724813
1152.53	0.743443
1154.15	1.16626
1155.78	0.822258
1157.4	0.733657
1159.03	0.602885
1160.65	0.387871
1162.28	1.27954
1163.9	0.853836
1165.53	0.811339
1167.15	0.641062
1168.78	0.639952
1170.4	0.382287
1172.02	0.271806
1173.65	0.796836
1175.27	0.704732
1176.89	0.400273
1178.51	0.223539
1180.14	0.576836
1181.76	0.190075
1183.38	0.01579
1185	0.412271
1186.62	-0.670656
1188.24	0.208943
1189.86	-0.390197
1191.48	0.0209541
1193.1	0.177475
1194.71	0.395816
1196.33	0.382895
1197.95	0.182368
1199.57	0.883128
1201.19	0.393606
1202.8	0.533632
1204.42	0.738445
1206.04	0.152232
1207.65	0.422761
1209.27	0.714372
1210.88	0.692363
1212.5	0.251866
1214.12	0.768383
1215.73	0.470119
1217.35	1.27327
1218.96	0.951651
1220.57	0.236132
1222.19	0.725485
1223.8	0.448387
1225.41	0.959869
1227.03	1.01684
1228.64	1.21985
1230.25	1.27917
1231.86	1.42229
1233.47	0.884469
1235.08	1.69128
1236.69	1.54855
1238.31	0.703895
1239.92	1.03817
1241.52	0.979815
1243.13	0.879777
1244.74	1.5653
1246.35	1.77406
1247.96	1.38175
1249.57	1.09221
1251.18	1.13344
1252.78	1.29896
1254.39	1.13417
1256	0.887652
1257.6	0.538773
1259.21	1.30819
1260.82	1.33372
1262.42	1.52541
1264.03	0.785101
1265.63	0.934972
1267.24	1.18793
1268.84	1.77186
1270.45	1.35971
1272.05	1.31974
1273.65	1.32026
1275.26	0.843114
1276.86	1.36001
1278.46	0.798648
1280.06	0.858338
1281.67	0.503763
1283.27	0.687466
1284.87	0.664695
1286.47	1.26291
1288.07	1.26239
1289.67	0.622117
1291.27	0.809004
1292.87	0.727202
1294.47	1.47112
1296.07	1.51133
1297.67	1.38484
1299.27	1.36008
1300.87	1.41638
1302.47	1.26542
1304.06	1.2579
1305.66	1.49641
1307.26	1.79557
1308.85	1.23212
1310.45	1.67407
1312.05	1.82884
1313.64	2.20899
1315.24	1.79251
1316.83	1.35726
1318.43	2.10656
1320.02	1.91686
1321.62	2.35805
1323.21	2.65443
1324.8	2.4402
1326.4	2.3468
1327.99	2.1314
1329.59	2.72697
1331.18	2.08906
1332.77	1.98003
1334.36	3.00414
1335.95	2.79777
1337.54	2.65278
1339.14	2.5073
1340.73	2.42075
1342.32	2.51325
1343.91	2.32208
1345.5	1.88927
1347.09	1.57785
1348.67	2.39046
1350.26	1.84313
1351.85	2.1992
1353.44	1.91727
1355.03	1.61689
1356.62	2.53599
1358.2	2.05582
1359.79	2.45365
1361.38	2.01173
1362.96	1.92847
1364.55	1.98449
1366.14	1.4828
1367.72	1.85863
1369.31	1.35945
1370.89	2.49383
1372.48	1.50011
1374.06	1.34337
1375.64	1.88372
1377.23	1.56859
1378.81	1.57137
1380.39	2.24967
1381.98	1.57373
1383.56	1.67243
1385.14	1.77007
1386.72	1.48967
1388.3	1.72597
1389.89	1.72451
1391.47	1.40646
1393.05	1.76387
1394.63	2.00251
1396.21	1.68568
1397.79	1.54674
1399.37	2.35805
1400.95	2.15756
1402.52	1.77851
1404.1	1.49874
1405.68	1.43727
1407.26	1.51504
1408.84	1.39602
1410.42	2.69976
1411.99	2.81792
1413.57	2.79719
1415.15	0.920796
1416.72	1.35274
1418.3	1.29108
1419.87	0.993383
1421.45	1.28766
1423.02	1.4651
1424.6	0.935511
1426.17	1.54873
1427.75	1.21775
1429.32	0.709379
1430.89	1.06625
1432.47	1.32359
1434.04	1.5799
1435.61	1.3046
1437.18	1.89473
1438.76	2.03317
1440.33	2.68356
1441.9	2.25396
1443.47	2.41471
1445.04	1.51455
1446.61	1.91173
1448.18	2.42707
1449.75	2.19575
1451.32	1.98449
1452.89	2.32436
1454.46	1.74023
1456.03	2.06091
1457.6	2.42047
1459.16	2.77884
1460.73	2.44663
1462.3	1.66012
1463.87	2.36712
1465.43	1.6375
1467	1.89049
1468.56	1.67234
1470.13	0.925399
1471.7	1.74949
1473.26	0.652085
1474.83	1.43835
1476.39	0.65625
1477.96	1.07033
1479.52	0.856991
1481.08	0.859215
1482.65	0.95935
1484.21	0.804625
1485.77	0.688823
1487.34	0.591996
1488.9	0.826901
1490.46	0.0424681
1492.02	0.68451
1493.58	0.99142
1495.15	0.749711
1496.71	0.449121
1498.27	0.693945
1499.83	0.433298
1501.39	0.290696
1502.95	0.304578
1504.51	-0.0682812
1506.07	0.063097
1507.63	0.155046
1509.18	0.651645
1510.74	0.374235
1512.3	0.732699
1513.86	0.570213
1515.41	0.465961
1516.97	0.304897
1518.53	0.125718
1520.08	0.866936
1521.64	1.01359
1523.2	0.528863
1524.75	0.369115
1526.31	0.456745
1527.86	0.105375
1529.42	0.153802
1530.97	0.54382
1532.52	0.250589
1534.08	-0.0789833
1535.63	0.765854
1537.19	1.1184
1538.74	0.715876
1540.29	0.239088
1541.84	0.40383
1543.4	0.71874
1544.95	0.544015
1546.5	0.632398
1548.05	0.851803
1549.6	1.53932
1551.15	0.914854
1552.7	1.28356
1554.25	0.848784
1555.8	0.789493
1557.35	0.750539
1558.9	0.545451
1560.45	1.40552
1562	0.420136
1563.54	0.667005
1565.09	1.5302
1566.64	0.975468
1568.19	0.980311
1569.73	0.854146
1571.28	1.30628
1572.83	0.899498
1574.37	1.03392
1575.92	1.24304
1577.47	1.06032
1579.01	1.19534
1580.56	1.34963
1582.1	1.3553
1583.64	1.19362
1585.19	1.08861
1586.73	1.00266
1588.28	1.19736
1589.82	1.72884
1591.36	1.82979
1592.9	1.42478
1594.45	1.54368
1595.99	1.41911
1597.53	1.4073
1599.07	1.84609
1600.61	1.9483
1602.15	1.43172
1603.69	1.40285
1605.23	1.73028
1606.77	1.64324
1608.31	1.81745
1609.85	1.8203
1611.39	1.72695
1612.93	1.35005
1614.47	1.16002
1616.01	1.19487
1617.55	1.11761
1619.08	1.26629
1620.62	1.41623
1622.16	0.930758
1623.7	1.19507
1625.23	0.860375
1626.77	1.3486
1628.3	1.57345
1629.84	1.4228
1631.37	0.934895
1632.91	1.08224
1634.44	1.02432
1635.98	1.22838
1637.51	1.67555
1639.05	1.19082
1640.58	1.50788
1642.11	1.37703
1643.65	1.35702
1645.18	1.52201
1646.71	1.07226
1648.24	1.31038
1649.78	1.39993
1651.31	0.989217
1652.84	0.932463
1654.37	1.28465
1655.9	1.28503
1657.43	1.80418
1658.96	1.67399
1660.49	1.33907
1662.02	1.37321
1663.55	1.40624
1665.08	1.23548
1666.61	1.32367
1668.14	1.43115
1669.66	1.42927
1671.19	1.20767
1672.72	0.987247
1674.25	1.5224
1675.77	1.48637
1677.3	0.731868
1678.83	1.0072
1680.35	0.84005
1681.88	0.819407
1683.4	0.725031
1684.93	1.12629
1686.45	0.977178
1687.98	1.14023
1689.5	0.13106
1691.03	0.642844
1692.55	0.60517
1694.07	0.915018
1695.6	0.858757
1697.12	0.857144
1698.64	0.307379
1700.17	0.579164
1701.69	0.813658
1703.21	0.518795
1704.73	0.114622
1706.25	0.802424
1707.77	0.270766
1709.29	-0.0420847
1710.81	0.2627
1712.33	0.0412569
1713.85	0.798684
1715.37	-0.0381393
1716.89	0.139297
1718.41	0.207884
1719.93	0.565211
1721.45	0.164289
1722.97	0.0889902
1724.49	0.0326471
1726	0.0674944
1727.52	0.0134258
1729.04	0.428101
1730.55	0.123172
1732.07	-0.124438
1733.59	0.0361853
1735.1	0.247957
1736.62	0.485553
1738.13	0.687947
1739.65	0.434724
1741.16	-0.0569658
1742.68	0.132724
1744.19	0.71281
1745.7	0.0740824
1747.22	0.165722
1748.73	-0.0378399
1750.24	0.116664
1751.76	0.241235
1753.27	0.406074
1754.78	0.871121
1756.29	-0.140507
1757.8	0.260637
1759.31	0.298129
1760.83	-0.0413151
1762.34	0.568571
1763.85	-0.0133991
1765.36	0.0201693
1766.87	0.256826
1768.38	0.0232229
1769.89	-0.163416
1771.39	0.0935392
1772.9	0.117584
1774.41	0.376767
1775.92	0.138117
1777.43	-0.192811
1778.94	0.220806
1780.44	0.166207
1781.95	0.0613089
1783.46	0.0814362
1784.96	-0.306732
1786.47	0.0300741
1787.97	0.100248
1789.48	0.195169
1790.99	0.0387211
1792.49	0.0895748
1794	0.161484
1795.5	0.017231
1797	0.0829821
1798.51	-0.158977
1800.01	-0.0424376
1801.51	0.215741
1803.02	0.0789361
1804.52	0.188161
1806.02	0.163751
1807.53	0.195515
1809.03	0.319355
1810.53	0.0556855
1812.03	-0.125405
1813.53	0.153466
1815.03	0.141316
1816.53	0.2415
1818.03	0.135215
1819.53	0.414579
1821.03	0.212179
1822.53	0.0829039
1824.03	0.0171194
1825.53	-0.158796
1827.03	0.144408
1828.53	0.00627041
1830.02	0.0568771
1831.52	0.0305982
1833.02	0.117183
1834.52	0.248263
1836.01	-0.295963
1837.51	-0.495296
1839.01	-0.192619
1840.5	0.362645
1842	-0.102161
1843.49	-0.0672951
1844.99	0.249527
1846.48	0.18614
1847.98	-0.0834613
1849.47	0.235814
1850.97	0.374137
1852.46	0.360651
1853.95	-0.0971088
1855.45	0.173329
1856.94	0.0541077
1858.43	0.0298915
1859.93	0.0593033
1861.42	0.00616217
1862.91	0.0517359
1864.4	0.305667
1865.89	0.470875
1867.38	0.386203
1868.87	0.109637
1870.36	0.0793381
1871.85	0.204175
1873.34	0.0180821
1874.83	0.273389
1876.32	0.0633373
1877.81	0.0850062
1879.3	0.48711
1880.79	0.0572095
1882.28	-0.175084
1882.52	-0.201214
1884.02	0.269277
1885.51	-0.41136
1887.01	0.266445
1888.5	0.229391
1889.99	-0.0858345
1891.49	0.643521
1892.98	-0.19094
1894.47	0.436759
1895.97	0.12694
1897.46	0.148177
1898.95	-0.0220175
1900.44	0.433168
1901.93	0.295466
1903.42	0.173647
1904.91	-0.314385
1906.4	0.344098
1907.89	0.324627
1909.38	0.0800638
1910.87	0.270275
1912.36	0.287693
1913.85	0.0627871
1915.34	0.0808091
1916.83	0.0118575
1918.32	-0.0748506
1919.8	0.0113811
1921.29	0.305325
1922.78	0.305076
1924.27	-0.0752802
1925.75	-0.00449467
1927.24	-0.0539961
1928.73	-0.0337071
1930.21	-0.446357
1931.7	0.0754175
1933.18	0.422763
1934.67	-0.166334
1936.15	0.12601
1937.64	-0.188149
1939.12	0.119736
1940.61	-0.159621
1942.09	-0.299881
1943.57	0.0956016
1945.06	-0.0775418
1946.54	0.301386
1948.02	-0.00946188
1949.51	-0.0795364
1950.99	0.280058
1952.47	0.208263
1953.95	0.42838
1955.43	0.0123343
1956.91	-0.162419
1958.4	-0.267746
1959.88	0.0393367
1961.36	0.380894
1962.84	0.362403
1964.32	0.172436
1965.8	-0.223289
1967.27	0.287931
1968.75	0.165113
1970.23	0.366703
1971.71	0.56777
1973.19	0.0857778
1974.67	-0.190774
1976.14	0.38541
1977.62	0.228556
1979.1	0.10604
1980.58	0.0346909
1982.05	0.405246
1983.53	0.129545
1985	0.312235
1986.48	0.443551
1987.95	0.0153947
1989.43	-0.0731621
1990.9	0.17742
1992.38	0.00566959
1993.85	-0.0298214
1995.33	0.256487
1996.8	0.205102
1998.27	0.255049
1999.75	0.60846
2001.22	-0.102067
2002.69	0.132167
2004.16	0.0794678
2005.64	0.380947
2007.11	0.00908279
2008.58	0.00870895
2010.05	0.328934
2011.52	0.36335
2012.99	0.296816
2014.46	-0.46003
2015.93	0.196058
2017.4	-0.107664
2018.87	-0.0924249
2020.34	0.56082
2021.81	0.104907
2023.28	-0.232778
2024.75	0.151947
2026.22	0.269037
2027.69	0.0518808
2029.15	0.339178
2030.62	-0.177553
2032.09	0.598409
2033.56	0.149839
2035.02	0.255116
2036.49	-0.0934372
2037.96	-0.392213
2039.42	0.11527
2040.89	0.337146
2042.35	0.57626
2043.82	0.479785
2045.28	0.0811372
2046.75	0.457203
2048.21	0.278044
2049.67	0.351217
2051.14	0.30556
2052.6	0.258532
2054.07	0.580967
2055.53	0.395921
2056.99	0.479476
2058.45	0.140995
2059.92	0.0889912
2061.38	0.104722
2062.84	0.0537939
2064.3	-0.013103
2065.76	0.425706
2067.22	0.225726
2068.68	0.127205
2070.14	0.0457573
2071.6	0.267375
2073.06	0.236364
2074.52	0.036726
2075.98	0.106221
2077.44	0.141733
2078.9	0.210585
2080.36	0.262202
2081.82	0.0944629
2083.27	-0.191603
2084.73	-0.158396
2086.19	0.210621
2087.65	0.326603
2089.1	-0.112472
2090.56	-0.0137715
2092.02	0.0343976
2093.47	0.0656619
2094.93	0.398539
2096.38	-0.0235949
2097.84	0.0232253
2099.29	0.303764
2100.75	0.366203
2102.2	0.178084
2103.66	0.408387
2105.11	0.055378
2106.56	0.0208097
2108.02	0.203948
2109.47	0.353927
2110.92	0.069952
2112.38	-0.148245
2113.83	-0.00121641
2115.28	0.144303
2116.73	0.155837
2118.18	0.300489
2119.63	-0.151506
2121.09	0.228055
2122.54	0.177712
2123.99	0.178338
2125.44	0.129754
2126.89	0.2965
2128.34	0.346329
2129.79	0.17956
2131.23	0.293423
2132.68	0.290628
2134.13	0.370523
2135.58	0.10376
2137.03	0.218561
2138.48	0.25218
2139.92	0.1386
2141.37	0.00977468
2142.82	0.0306382
2144.27	0.167836
2145.71	-0.108504
2147.16	0.243863
2148.6	-0.165906
2150.05	0.284879
2151.49	0.519633
2152.94	0.455347
2154.38	-0.0238314
2155.83	0.142805
2157.27	0.342593
2158.72	0.0459924
2160.16	0.263953
2161.6	0.0359778
2163.05	0.240321
2164.49	-0.05159
2165.93	0.171413
2167.38	0.195296
2168.82	0.151875
2170.26	0.206805
2171.7	-0.255596
2173.14	-0.0541325
2174.58	0.146248
2176.03	0.495772
2177.47	0.130357
2178.91	0.247774
2180.35	-0.182693
2181.79	0.152306
2183.23	0.371441
2184.67	0.341384
2186.1	0.0618296
2187.54	-0.0347824
2188.98	0.268016
2190.42	-0.0782709
2191.86	0.15781
2193.3	0.02707
2194.73	-0.554231
2196.17	0.261523
2197.61	0.0103116
2199.05	0.472999
2200.48	0.00375605
2201.92	0.215782
2203.35	0.245525
2204.79	0.0771303
2206.22	0.390354
2207.66	0.0907707
2209.1	0.139045
2210.53	-0.160915
2211.97	-0.163578
2213.4	-0.34863
2214.83	0.143679
2216.27	-0.0739832
2217.7	-0.0760422
2219.13	0.0547915
2220.57	0.153241
2222	0.0539622
2223.43	0.530807
2224.86	0.248609
2226.29	0.0640779
2227.72	0.289519
2229.16	0.15214
2230.59	0.21129
2232.02	0.171793
2233.45	0.21446
2234.88	0.110471
2236.31	0.00763512
2237.74	0.102118
2239.17	0.181692
2240.6	-0.0633998
2242.03	0.198637
2243.45	0.526908
2244.88	0.415112
2246.31	0.612666
2247.74	0.238032
2249.17	0.13897
2250.59	0.0544944
2252.02	0.570969
2253.45	0.484109
2254.87	0.446398
2256.3	0.361257
2257.73	0.164612
2259.15	-0.0944657
2260.58	-0.4648
2262	-0.103069
2263.43	0.244027
2264.85	-0.0907636
2266.28	0.175406
2267.7	0.197174
2269.13	0.462305
2270.55	0.157168
2271.97	-0.0182824
2273.4	0.262055
2274.82	0.395971
2276.24	0.187946
2277.67	0.175542
2279.09	0.179481
2280.51	0.0366077
2281.93	0.236085
2283.35	-0.347524
2284.77	0.129332
2286.2	0.296463
2287.62	-0.140141
2289.04	-0.21735
2290.46	0.01616
2291.88	0.135654
2293.3	-0.0390229
2294.72	0.358776
2296.13	0.0366259
2297.55	0.12354
2298.97	0.243333
2300.39	-0.193876
2301.81	-0.0737491
2303.23	0.177969
2304.64	0.380832
2306.06	-0.0566688
2307.48	0.27738
2308.89	0.463325
2310.31	0.106259
2311.73	0.0118141
2313.14	-0.0498195
2314.56	0.0369611
2315.98	0.206731
2317.39	-0.0840054
2318.81	0.218746
2320.22	0.0598149
2321.64	0.312346
2323.05	0.101338
2324.46	0.053431
2325.88	0.81211
2327.29	0.678218
2328.7	0.494348
2330.12	-0.117408
2331.53	0.25997
2332.94	0.0619445
2334.35	-0.0365472
2335.77	-0.184149
2337.18	-0.0524521
2338.59	0.177017
2340	-0.0711889
2341.41	-0.057137
2342.82	-0.256858
2344.23	-0.144748
2345.64	0.295207
2347.05	0.0960646
2348.46	0.0936174
2349.87	0.107216
2351.28	-0.0596585
2352.69	-0.0964046
2354.1	-0.182795
2355.51	0.496521
2356.91	0.376287
2358.32	0.402651
2359.73	-0.107104
2361.14	0.114654
2362.54	-0.0856051
2363.95	0.313701
2365.36	-0.0159206
2366.76	-0.118434
2368.17	0.199515
2369.58	0.114444
2370.98	-0.420751
2372.39	-0.132612
2373.79	0.172129
2375.2	-0.166928
2376.6	0.378906
2378	0.280066
2379.41	0.03544
2380.81	0.464073
2382.22	0.233167
2383.62	-0.0299997
2385.02	0.0111985
2386.43	0.164444
2387.83	0.318085
2389.23	0.0259895
2390.63	0.181496
2392.03	-0.0284181
2393.44	0.0650511
2394.84	0.270437
2396.24	0.476237
2397.64	-0.032743
2399.04	0.237586
2400.44	-0.397291
2401.84	-0.316953
2403.24	-0.0460348
2404.64	0.256245
2406.04	0.0973206
2407.44	-0.0463953
2408.84	0.380312
2410.23	0.378317
2411.63	0.392348
2413.03	-0.0522022
2414.43	0.153694
2415.83	0.0599418
2417.22	-0.222702
2418.62	0.144513
2420.02	-0.0104761
2421.41	0.167025
2422.81	0.122489
2424.21	0.141088
2425.6	0.159737
2427	0.368998
2428.39	0.135191
2429.79	0.108182
2431.18	0.446663
2432.58	0.16648
2433.97	0.425578
2435.36	0.31851
2436.76	0.400806
2438.15	-0.0107274
2439.54	0.561636
2440.94	0.100714
2442.33	0.131743
2443.72	-0.472208
2445.12	0.0186176
2446.51	0.207661
2447.9	0.50735
2449.29	0.188985
2450.68	0.124415
2452.07	-0.224564
2453.46	-0.05055
2454.85	0.0607872
2456.24	-0.301906
2457.64	0.0475097
2459.02	0.191126
2460.41	0.176087
2461.8	0.334294
2463.19	-0.140482
2464.58	0.0481768
2465.97	0.204841
2467.36	0.0297914
2468.75	0.138855
2470.13	0.200336
2471.52	0.387469
2472.91	-0.0248098
2474.3	-0.153828
2475.68	-0.0314975
2477.07	0.137482
2478.45	0.00775242
2479.84	0.160814
2481.23	0.0315366
2482.61	0.247081
2484	-0.273871
2485.38	0.0499458
2486.77	0.15346
2488.15	-0.103076
2489.54	0.341706
2490.92	-0.179755
2492.3	0.0932817
2493.69	-0.0526867
2495.07	-0.228305
2496.45	-0.0926313
2497.84	0.229383
2499.22	0.133257
2500.6	0.0215192
2501.98	0.0793099
2503.36	0.244277
2504.75	0.223064
2506.13	0.170549
2507.51	-0.020576
2508.89	0.219277
2510.27	0.228603
2511.65	0.0083127
2513.03	0.0956287
2514.41	0.443882
2515.79	-0.110679
2517.17	0.0550361
2518.55	0.266873
2519.93	0.279978
2521.3	0.124846
2522.68	0.0914488
2524.06	-0.40017
2525.44	0.0532866
2526.82	0.140321
2528.19	-0.0311193
2529.57	0.11788
2530.95	-0.0511608
2532.32	0.0395856
2533.7	0.359305
2535.08	0.223813
2536.45	-0.04844
2537.83	-0.0173836
2539.2	-0.154177
2540.58	0.11837
2541.95	0.208299
2543.33	0.29839
2544.7	-0.293464
2546.08	0.0410514
2547.45	0.0580139
2548.82	0.197043
2550.2	0.229962
2551.57	0.262483
2552.94	-0.00929117
2554.32	0.127832
2555.69	-0.039268
2557.06	0.00560093
2558.43	-0.116464
2559.8	-0.101823
2561.18	0.064796
2562.55	-0.0712113
2563.92	0.232733
2565.29	0.340022
2566.66	0.311131
2568.03	0.252002
2569.4	0.359584
2570.77	0.254979
2572.14	-0.258866
2573.51	0.151964
2574.88	0.153608
2576.25	-0.147943
2577.61	-0.100879
2578.98	0.0521502
2580.35	0.0381002
2581.72	0.0843611
2583.09	-0.203245
2584.45	-0.0816784
2585.82	-0.0056591
2587.19	0.358408
2588.55	-0.171604
2589.92	-0.171051
2591.29	0.0263948
2592.65	-0.109919
2594.02	0.0712795
2595.38	0.221244
2596.75	-0.11414
2598.11	-0.0867658
2599.48	-0.0597305
2600.84	0.148666
2602.21	-0.0505128
2603.57	-0.052722
2604.93	-0.00921535
2606.3	0.185262
2607.66	0.183299
2609.02	-0.211225
2610.39	0.0413837
2611.75	-0.0686526
2613.11	-0.0591569
2614.47	-0.0953865
2615.83	-0.0267177
2617.19	0.0419908
2618.56	0.395604
2619.92	0.449971
2621.28	0.146035
2622.64	-0.0524344
2624	0.0183263
2625.36	0.0590982
2626.72	0.218892
2628.08	-0.113562
2629.44	0.194488
2630.8	0.11505
2632.15	0.258629
2633.51	-0.0288358
2634.87	-0.241664
2636.23	0.153854
2637.59	-0.0291877
2638.94	0.617244
2640.3	0.167989
2641.66	0.1927
2643.02	0.202831
2644.37	0.109747
2645.73	0.119988
2647.09	-0.00280571
2648.44	0.00659132
2649.8	-0.146576
2651.15	-0.0794935
2652.51	0.0312481
2653.86	0.303317
2655.22	0.0624804
2656.57	0.364851
2657.93	0.00913906
2659.28	0.166579
2660.63	-0.0120983
2661.99	0.174633
2663.34	0.36066
2664.69	0.428983
2666.05	0.0152345
2667.4	0.0826578
2668.75	-0.0685415
2670.1	0.0717139
2671.45	0.0522537
2672.81	-0.388037
2674.16	-0.173833
2675.51	0.127684
2676.86	-0.150945
2678.21	0.165806
2679.56	0.0915661
2680.91	0.36617
2682.26	0.264814
2683.61	-0.183577
2684.96	0.28241
2686.31	-0.121515
2687.66	0.185377
2689	-0.0166712
2690.35	-0.437886
2691.7	-0.105683
2693.05	0.428187
2694.4	0.0906849
2695.74	0.202655
2697.09	0.213617
2698.44	0.298058
2699.79	0.137739
2701.13	0.427783
2702.48	-0.0629497
2703.83	0.156881
2705.17	0.435326
2706.52	0.0613809
2707.86	0.441442
2709.21	0.110145
2710.55	0.0977621
2711.9	0.564527
2713.24	0.0869284
2714.58	0.3503
2715.93	0.0757899
2717.27	0.440942
2718.62	0.224154
2719.96	0.574437
2721.3	0.327764
2722.65	0.284372
2723.99	0.444346
2725.33	0.458388
2726.67	0.122778
2728.01	0.427305
2729.35	0.425967
2730.7	0.657303
2732.04	0.466642
2733.38	0.290645
2734.72	0.260286
2736.06	0.259189
2737.4	0.6218
2738.74	-0.0191221
2740.08	0.372315
2741.42	0.268897
2742.76	0.194036
2744.1	0.307542
2745.43	0.36233
2746.77	0.315045
2748.11	0.0353942
2749.45	0.104227
2750.79	0.477732
2752.12	0.213269
2753.46	0.0506349
2754.8	0.0765977
2756.14	0.37784
2757.47	0.114343
2758.81	-0.00404215
2760.14	-0.0352211
2761.48	0.657557
2762.81	0.294316
2764.15	0.162896
2765.49	0.0893521
2766.82	-0.0858302
2768.16	0.374701
2769.49	0.371171
2770.82	0.207416
2772.16	-0.000629902
2773.49	0.353507
2774.82	0.360569
2776.16	0.281158
2777.49	-0.0424666
2778.82	0.16695
2780.16	0.247169
2781.49	0.198309
2782.82	0.278746
2784.15	-0.257662
2785.48	0.0808678
2786.82	-0.21109
2788.15	0.0846052
2789.48	0.380643
2790.81	0.376865
2792.14	0.0163212
2793.47	0.0851889
2794.8	0.625698
2796.13	-0.163156
2797.46	0.290677
2798.79	0.158298
2800.12	0.111293
2801.44	-0.235465
2802.77	-0.0117269
2804.1	0.0833116
2805.43	0.149387
2806.76	-0.0982637
2808.08	0.165923
2809.41	0.216175
2810.74	0.0817571
2812.07	0.288628
2813.39	0.269294
2814.72	0.137814
2816.05	0.00764275
2817.37	0.360349
2818.7	0.146603
2820.02	0.216341
2821.35	0.399081
2822.67	0.269439
2824	0.266816
2825.32	0.334717
2826.65	0.303496
2827.97	0.244419
2829.3	0.398197
2830.62	0.52405
2831.94	0.565152
2833.26	0.90346
2834.59	0.845128
2835.91	0.475021
2837.23	0.500751
2838.56	0.497799
2839.88	1.20176
2841.2	1.3258
2842.52	0.96957
2843.84	1.30658
2845.16	1.58767
2846.48	1.47363
2847.8	1.96766
2849.12	1.83987
2850.45	1.98034
2851.77	1.32886
2853.08	2.06199
2854.4	2.07393
2855.72	2.22697
2857.04	2.08331
2858.36	2.3776
2859.68	2.34698
2861	2.24561
2862.32	2.70867
2863.63	2.5925
2864.95	2.54668
2866.27	2.50087
2867.59	3.71048
2868.9	3.24213
2870.22	3.76122
2871.54	3.85746
2872.85	3.95339
2874.17	3.99214
2875.48	3.84665
2876.8	3.91133
2878.11	4.72088
2879.43	4.44636
2880.74	3.91948
2882.06	5.24849
2883.37	4.48502
2884.69	4.71998
2886	5.30644
2887.31	5.17697
2888.63	5.43994
2889.94	5.57563
2891.25	5.35969
2892.57	5.42355
2893.88	5.93543
2895.19	5.77518
2896.5	6.11991
2897.82	5.45817
2899.13	6.29495
2900.44	6.1392
2901.75	6.48764
2903.06	6.24881
2904.37	6.15005
2905.68	6.21947
2906.99	6.4714
2908.3	6.27667
2909.61	6.62855
2910.92	6.68737
2912.23	6.39626
2913.54	6.91619
2914.85	7.18256
2916.16	7.27889
2917.46	7.19138
2918.77	7.38256
2920.08	6.98602
2921.39	7.07987
2922.7	7.66439
2924	7.38377
2925.31	7.53784
2926.62	7.31523
2927.92	7.52603
2929.23	7.14926
2930.54	7.45688
2931.84	7.72202
2933.15	7.70726
2934.45	6.97968
2935.76	7.34246
2937.06	7.17434
2938.37	7.3698
2939.67	7.11841
2940.98	7.24489
2942.28	7.16276
2943.58	7.06802
2944.89	6.17791
2946.19	6.18357
2947.49	5.79817
2948.8	6.00008
2950.1	5.78091
2951.4	5.55977
2952.7	5.63069
2954.01	5.14011
2955.31	5.64316
2956.61	5.53117
2957.91	4.74949
2959.21	5.24441
2960.51	4.50989
2961.81	4.78587
2963.11	4.86667
2964.41	4.87685
2965.71	4.30962
2967.01	4.471
2968.31	4.65929
2969.61	4.27036
2970.91	3.6139
2972.21	4.19548
2973.51	3.75043
2974.81	4.12159
2976.1	4.08401
2977.4	3.76351
2978.7	3.82146
2980	3.07528
2981.29	2.86301
2982.59	3.25519
2983.89	2.84601
2985.18	3.04255
2986.48	2.67842
2987.78	2.61088
2989.07	2.88159
2990.37	1.9721
2991.66	2.32701
2992.96	2.10473
2994.25	1.86731
2995.55	1.50259
2996.84	1.78334
2998.14	1.34798
2999.43	1.0956
3000.73	1.2225
3002.02	0.957395
3003.31	1.25336
3004.61	0.932905
3005.9	1.36866
3007.19	0.7397
3008.48	1.03403
3009.77	0.865844
3011.07	0.781082
3012.36	0.291224
3013.65	0.611283
3014.94	0.596692
3016.23	0.415598
3017.52	0.444252
3018.81	0.348131
3020.1	0.0158019
3021.4	0.142198
3022.68	0.142772
3023.97	0.156447
3025.26	0.335869
3026.55	0.403993
3027.84	0.237209
3029.13	0.251445
3030.42	0.32225
3031.71	0.214767
3033	0.122126
3034.28	-0.149529
3035.57	-0.0213103
3036.86	0.00926685
3038.15	0.121034
3039.43	-0.140491
3040.72	-0.196467
3042.01	-0.0471039
3043.29	0.197794
3044.58	-0.104703
3045.87	0.23754
3047.15	0.171205
3048.44	0.0114517
3049.72	-0.296465
3051.01	0.365953
3052.29	0.223948
3053.58	0.218478
3054.86	0.458081
3056.15	0.0693831
3057.43	0.498036
3058.71	0.189915
3060	0.263234
3061.28	0.690636
3062.56	0.207233
3063.84	0.0789614
3065.13	-0.0750847
3066.41	0.465435
3067.69	0.13677
3068.97	0.189191
3070.26	-0.00332689
3071.54	0.129916
3072.82	0.00382614
3074.1	0.434198
3075.38	0.00747585
3076.66	0.273574
3077.94	0.186907
3079.22	0.155565
3080.5	-0.267817
3081.78	0.00201464
3083.06	0.123745
3084.34	0.0562086
3085.62	0.00235033
3086.9	0.0296464
3088.18	-0.0657268
3089.45	0.00129128
3090.73	0.122278
3092.01	-0.150248
3093.29	0.0387135
3094.56	-0.192458
3095.84	0.308928
3097.12	0.39006
3098.4	0.132359
3099.67	0.294799
3100.95	-0.206589
3102.22	-0.260655
3103.5	-0.0436091
3104.78	-0.205147
3106.05	0.13478
3107.33	0.191309
3108.6	0.248793
3109.88	0.117772
3111.15	-0.0801148
3112.43	0.196634
3113.7	-0.0815191
3114.97	0.290901
3116.25	0.215786
3117.52	0.112904
3118.79	0.348311
3120.07	0.0404067
3121.34	0.138733
3122.61	0.0333247
3123.88	0.361454
3125.16	0.378133
3126.43	0.408819
3127.7	0.358891
3128.97	0.634123
3130.24	0.449911
3131.51	0.252503
3132.79	0.676787
3134.06	0.303664
3135.33	0.497551
3136.6	0.394084
3137.87	0.694902
3139.14	0.55052
3140.41	0.702482
3141.67	0.719894
3142.94	0.589834
3144.21	0.715627
3145.48	0.667482
3146.75	0.941821
3148.02	0.613661
3149.29	0.88904
