200.523	-0.168515
202.339	-0.148154
204.154	-0.126666
205.967	0.454971
207.781	0.282685
209.596	0.110084
211.409	0.810962
213.222	0.296213
215.034	0.266253
216.848	-0.248884
218.659	0.278145
220.47	0.127315
222.281	0.388667
224.091	-0.558301
225.903	-0.65814
227.713	0.135875
229.522	0.252775
231.331	0.658669
233.14	0.484939
234.948	-0.0258913
236.756	0.139681
238.566	0.523944
240.373	0.35602
242.18	0.238221
243.986	0.507438
245.792	0.366476
247.598	0.368813
249.403	-0.186668
251.208	0.24506
253.013	0.0466309
254.818	0.498156
256.624	0.105036
258.427	-0.0701265
260.231	0.0694265
262.034	-0.126693
263.836	0.304933
265.638	0.279747
267.44	0.303004
269.242	0.470585
271.043	0.468688
272.844	0.36927
274.645	0.606091
276.445	0.0940771
278.245	-0.0819483
280.044	-0.16323
281.843	0.114843
283.642	0.3187
285.44	-0.127758
287.238	0.145989
289.036	0.275312
290.833	0.788291
292.63	0.535686
294.425	-0.0739746
296.221	0.107242
298.017	0.2653
299.813	-0.0780725
301.608	-0.18259
303.403	0.595589
305.198	-0.0121527
306.992	0.405486
308.786	1.01314
310.579	0.191167
312.371	0.75226
314.163	0.0287266
315.956	0.664158
317.748	0.277234
319.54	0.24878
321.331	0.626479
323.122	0.480585
324.911	0.239403
326.701	0.73821
328.491	0.5684
330.281	0.278212
332.071	0.417159
333.857	0.913536
335.646	0.355236
337.434	0.512689
339.222	0.955267
341.008	0.176479
342.795	0.0669088
344.582	0.0768366
346.369	0.755923
348.153	0.527828
349.939	0.133176
351.724	0.359228
353.51	0.155135
355.292	0.0456161
357.077	-0.0172787
358.861	-0.0812674
360.643	1.06829
362.426	0.2879
364.21	0.31642
365.99	0.534274
367.773	-0.0322113
369.555	0.373745
371.335	0.11489
373.116	0.684008
374.897	0.258971
376.676	-0.0706453
378.456	0.47331
380.236	0.522272
382.014	0.101443
383.793	0.529069
385.57	0.0875206
387.349	-0.258586
389.127	0.265592
390.903	0.203179
392.681	0.18844
394.456	-0.0841322
396.233	0.324641
398.007	0.169826
399.784	0.555034
401.56	0.446604
403.333	0.149672
405.108	0.251369
406.881	0.0705786
408.656	0.28844
410.428	-0.0339708
412.202	0.44168
413.973	-0.279183
415.746	0.126903
417.517	0.416317
419.29	0.025774
421.06	0.010829
422.831	-0.0513039
424.601	0.355448
426.37	0.0805931
428.141	0.274526
429.909	0.233264
431.679	-0.136608
433.447	-0.811299
435.216	-0.429606
436.983	0.609187
438.75	0.168757
440.519	0.337234
442.285	0.363091
444.052	0.293234
445.818	0.128139
447.583	0.477162
449.349	0.123663
451.114	0.518458
452.878	0.445997
454.643	0.233887
456.407	0.418273
458.169	-0.259415
459.934	0.27401
461.696	0.0631342
463.458	1.06238
465.222	-0.330123
466.983	0.0923834
468.744	0.61027
470.507	0.525585
472.267	0.394759
474.027	0.216531
475.787	0.036603
477.548	0.367238
479.307	0.60312
481.065	0.116043
482.823	0.094986
484.583	0.983279
486.341	0.149639
488.098	0.202894
489.855	0.654469
491.612	0.524056
493.37	0.417355
495.126	0.0533438
496.881	0.0631046
498.636	0.611536
500.391	0.386618
502.148	0.512811
503.902	0.286051
505.656	0.528049
507.409	0.39283
509.162	0.279659
510.915	0.612096
512.668	0.449039
514.42	0.449362
516.174	0.377898
517.925	0.517064
519.676	0.420161
521.427	-0.194225
523.178	0.506659
524.928	0.854543
526.678	0.662493
528.427	0.165854
530.176	0.16173
531.925	0.086977
533.673	0.315895
535.422	0.66041
537.169	0.886255
538.917	0.0131559
540.664	0.656647
542.411	-0.635247
544.157	-0.0400496
545.903	0.112207
547.649	-0.687264
549.395	0.416112
551.14	0.475206
552.884	0.0254669
554.629	0.385523
556.373	0.514244
558.117	-0.187085
559.86	0.910279
561.603	0.187757
563.346	0.501928
565.089	0.149599
566.831	0.625201
568.573	0.251541
570.314	0.315164
572.053	0.402885
573.794	-0.127335
575.534	0.146844
577.274	0.353698
579.014	0.217485
580.754	0.242569
582.493	0.405627
584.23	-0.0523901
585.968	0.0863209
587.706	0.109018
589.444	0.0386639
591.181	0.174582
592.919	0.0339584
594.653	-0.01476
596.39	-0.293522
598.126	0.14089
599.862	-0.253249
601.595	0.318114
603.33	-0.123739
605.065	0.146116
606.8	0.184839
608.532	0.176911
610.266	0.00822163
611.999	0.207124
613.732	0.291874
615.463	-0.012475
617.196	0.027174
618.928	0.203747
620.66	-0.30747
622.389	0.347521
624.12	0.200819
625.851	-0.174098
627.58	0.228568
629.31	0.039196
631.04	0.399535
632.767	0.442169
634.497	0.485723
636.223	0.0267725
637.952	0.844596
639.68	0.358897
641.406	0.00787544
643.134	0.0199165
644.861	0.417939
646.586	0.997519
648.312	0.509611
650.037	-0.0204
651.762	0.248264
653.486	-0.0478973
655.211	0.340809
656.936	0.117338
658.659	0.304495
660.383	0.149382
662.105	0.380864
663.829	0.519269
665.55	0.655673
667.273	0.401702
668.994	0.42146
670.716	0.281766
672.436	0.441169
674.158	0.121936
675.877	0.904237
677.598	0.610733
679.317	0.661264
681.035	0.481099
682.755	0.0229731
684.473	0.414215
686.192	-0.094018
687.909	0.570844
689.628	0.428728
691.344	0.0786467
693.06	0.557276
694.778	0.367232
696.493	0.752079
698.211	1.02054
699.925	0.0911331
701.64	0.265542
703.356	0.944536
705.07	0.887061
706.783	0.484956
708.498	0.74808
710.211	0.804239
711.924	0.562369
713.638	1.12115
715.35	1.33599
717.061	0.956793
718.774	0.874877
720.485	0.65653
722.196	1.00797
723.906	0.721806
725.618	1.04977
727.328	1.03622
729.037	0.954237
730.746	1.05335
732.456	0.812203
734.165	1.40847
735.873	0.421497
737.58	1.37861
739.289	0.394478
740.997	0.337043
742.703	1.04657
744.41	1.26116
746.116	1.11678
747.823	1.31122
749.529	1.21441
751.234	1.18627
752.938	0.484522
754.643	1.06613
756.347	0.434089
758.051	1.6717
759.756	1.08708
761.459	1.26926
763.162	0.933214
764.865	1.95125
766.567	1.72685
768.269	1.41004
769.97	1.31713
771.671	0.996209
773.372	1.51072
775.073	1.54994
776.773	1.34095
778.473	1.47231
780.174	1.37893
781.874	1.64848
783.573	1.66938
785.271	1.41757
786.97	1.57103
788.668	1.29157
790.365	1.12251
792.063	1.19992
793.76	1.56931
795.456	1.53175
797.153	1.02183
798.847	1.93297
800.543	1.20157
802.238	1.23707
803.933	1.20566
805.628	1.39891
807.322	1.25422
809.017	1.13109
810.71	1.54566
812.404	1.55516
814.097	1.94501
815.79	1.70718
817.483	1.15657
819.173	1.34445
820.865	1.62147
822.556	2.09921
824.248	1.70747
825.939	1.62953
827.629	1.57591
829.318	1.76982
831.008	2.14471
832.697	1.74269
834.387	1.63206
836.076	1.72296
837.765	1.36739
839.451	1.47931
841.139	1.16548
842.827	1.74399
844.514	1.96478
846.2	2.09692
847.886	0.866872
849.573	1.33813
851.259	1.05095
852.943	1.43737
854.629	0.636124
856.314	1.54022
857.997	1.02855
859.682	0.537037
861.366	0.673784
863.05	0.809319
864.732	0.898801
866.415	0.671937
868.098	1.54932
869.779	1.14112
871.461	0.958048
873.141	0.684512
874.823	0.704165
876.505	1.15261
878.184	0.450118
879.865	0.740563
881.545	1.05332
883.223	0.936543
884.903	1.17997
886.581	0.654729
888.26	0.760133
889.937	1.04449
891.616	1.25958
893.294	1.11285
894.97	0.402817
896.648	0.77212
898.323	0.780543
900	1.12456
901.675	1.15343
903.351	0.935579
905.026	0.963945
906.701	0.657651
908.375	0.843111
910.05	0.895296
911.723	0.280824
913.398	0.734874
915.07	1.12177
916.742	0.421056
918.415	0.807488
920.087	0.661945
921.76	0.362304
923.43	0.727252
925.103	1.46862
926.773	0.775782
928.443	0.636768
930.114	0.609225
931.783	0.405777
933.454	-0.0841618
935.123	1.19075
936.791	0.260285
938.461	0.256947
940.128	1.1369
941.796	0.716621
943.464	0.495385
945.131	1.0464
946.797	0.779814
948.465	0.886825
950.131	0.837633
951.797	0.677098
953.462	0.913735
955.128	0.468114
956.793	0.399826
958.457	0.422518
960.121	0.668342
961.786	0.672845
963.45	0.367734
965.113	0.392536
966.775	0.193818
968.44	0.125441
970.102	0.320822
971.763	0.64814
973.425	0.666162
975.086	0.0441828
976.748	0.794886
978.409	0.330492
980.069	0.452807
981.729	0.574833
983.388	1.1274
985.048	0.394266
986.708	0.434158
988.367	0.428241
990.025	0.200138
991.683	0.612634
993.341	0.16314
994.998	0.221953
996.655	0.369043
998.312	0.427751
999.969	0.970959
1001.62	0.940585
1003.28	1.0639
1004.94	0.3951
1006.59	0.430331
1008.25	0.355842
1009.9	0.128142
1011.56	0.383566
1013.21	0.2665
1014.86	0.719392
1016.52	0.405963
1018.17	0.13708
1019.82	-0.043376
1021.48	0.0395393
1023.13	-0.00780296
1024.78	0.0330963
1026.43	-0.100347
1028.08	-0.27745
1029.73	0.484343
1031.38	0.04354
1033.03	0.300269
1034.68	0.620762
1036.33	0.111174
1037.98	0.538388
1039.63	-0.0146236
1041.28	0.0645514
1042.93	-0.072628
1044.57	0.617422
1046.22	0.548481
1047.87	0.264077
1049.52	-0.0405931
1051.16	0.285642
1052.81	-0.234591
1054.45	0.310023
1056.1	-0.405738
1057.75	-0.382896
1059.39	0.357062
1061.04	0.292099
1062.68	-0.338902
1064.32	0.203508
1065.97	0.179668
1067.61	0.43744
1069.25	-0.0444546
1070.9	-0.0487547
1072.54	0.641455
1074.18	-0.0570965
1075.82	-0.125237
1077.47	0.696917
1079.11	0.28394
1080.75	0.673985
1082.39	0.478518
1084.03	0.260601
1085.67	-0.067028
1087.31	0.102201
1088.95	0.29113
1090.59	0.0239363
1092.22	-0.070857
1093.86	0.114842
1095.5	-0.131105
1097.14	0.723416
1098.78	0.393151
1100.41	0.969021
1102.05	-0.132296
1103.69	0.295999
1105.32	0.123
1106.96	-0.178523
1108.59	0.0358725
1110.23	0.528755
1111.86	0.160253
1113.5	-0.0804281
1115.13	0.0645456
1116.77	0.444796
1118.4	0.588838
1120.03	-0.466397
1121.67	0.0648985
1123.3	0.0187302
1124.93	0.165998
1126.56	-0.0496807
1128.19	0.163099
1129.83	0.654378
1131.46	-0.158055
1133.09	-0.0508757
1134.72	-0.435465
1136.35	0.354992
1137.98	0.161326
1139.61	0.308483
1141.24	-0.313925
1142.86	0.237472
1144.49	0.148621
1146.12	0.167062
1147.75	0.356815
1149.38	-0.304968
1151	-0.156624
1152.63	-0.37036
1154.26	-0.0520468
1155.88	0.691393
1157.51	0.200281
1159.14	-0.141306
1160.76	-0.0141611
1162.39	-0.268815
1164.01	0.476701
1165.63	0.117033
1167.26	-0.00899696
1168.88	0.523109
1170.51	0.415864
1172.13	0.413181
1173.75	-0.143078
1175.38	0.191421
1177	-0.00497627
1178.62	0.349847
1180.24	0.725936
1181.86	-0.145671
1183.48	0.0202398
1185.1	-0.152093
1186.72	-0.00829697
1188.34	0.61912
1189.96	0.274083
1191.58	-0.0929251
1193.2	-0.271064
1194.82	0.369379
1196.44	0.00179195
1198.06	-0.238358
1199.68	-0.0581884
1201.29	0.060957
1202.91	-0.11009
1204.53	0.409953
1206.14	0.535111
1207.76	0.536223
1209.38	0.162092
1210.99	0.746716
1212.61	0.808235
1214.22	0.346721
1215.84	0.300265
1217.45	0.709939
1219.07	0.723091
1220.68	1.02674
1222.29	0.252097
1223.91	0.433084
1225.52	0.387384
1227.13	0.69486
1228.74	1.66514
1230.36	1.12657
1231.97	0.486107
1233.58	0.77702
1235.19	0.573001
1236.8	0.473392
1238.41	0.540046
1240.02	1.18632
1241.63	0.488624
1243.24	0.804038
1244.85	1.07748
1246.46	1.39143
1248.07	0.918111
1249.67	1.10626
1251.28	1.48028
1252.89	1.25457
1254.5	0.781396
1256.1	0.7229
1257.71	1.32751
1259.32	1.64377
1260.92	1.05028
1262.53	1.2644
1264.13	1.33368
1265.74	1.81709
1267.34	1.26363
1268.95	1.06149
1270.55	1.48036
1272.15	0.985964
1273.76	0.698005
1275.36	1.11399
1276.97	1.32171
1278.57	1.21781
1280.17	1.38259
1281.77	1.56765
1283.37	1.11137
1284.97	1.48315
1286.58	1.00795
1288.18	1.23667
1289.78	1.54882
1291.38	0.972851
1292.98	1.61592
1294.58	1.41111
1296.18	1.68017
1297.78	1.41076
1299.37	1.53204
1300.97	1.23943
1302.57	0.987326
1304.17	1.29043
1305.77	1.46894
1307.36	1.52339
1308.96	0.838925
1310.55	1.81583
1312.15	1.31714
1313.75	1.74047
1315.34	1.53056
1316.94	1.32191
1318.53	1.19571
1320.13	2.47618
1321.72	1.32979
1323.32	1.50669
1324.91	1.55963
1326.5	1.81411
1328.1	1.37817
1329.69	1.28809
1331.28	1.56375
1332.87	1.84098
1334.47	1.39311
1336.06	1.31054
1337.65	1.59157
1339.24	1.50881
1340.83	1.42458
1342.42	1.64031
1344.01	1.43161
1345.6	1.6239
1347.19	1.07405
1348.78	1.44835
1350.37	1.06379
1351.96	1.74214
1353.54	1.58211
1355.13	1.30349
1356.72	1.40501
1358.31	1.18645
1359.89	1.24672
1361.48	1.28598
1363.07	1.42417
1364.65	0.983772
1366.24	1.67977
1367.82	1.45979
1369.41	1.51984
1370.99	0.387168
1372.58	1.32553
1374.16	0.692867
1375.75	1.59295
1377.33	1.85641
1378.91	1.10453
1380.5	1.5257
1382.08	0.712171
1383.66	1.44901
1385.25	1.2899
1386.83	1.26959
1388.41	1.05088
1389.99	0.852837
1391.57	1.19149
1393.15	0.757018
1394.73	0.739575
1396.31	1.01939
1397.89	1.19929
1399.47	0.94222
1401.05	1.0212
1402.63	0.565144
1404.21	0.623935
1405.78	0.564492
1407.36	1.0395
1408.94	0.902425
1410.52	1.35845
1412.1	0.688622
1413.67	1.42018
1415.25	1.16378
1416.82	0.808253
1418.4	0.945511
1419.98	0.846555
1421.55	0.847113
1423.13	0.711285
1424.7	0.891866
1426.28	1.21131
1427.85	1.33441
1429.42	1.06359
1431	1.85477
1432.57	1.34587
1434.14	1.40683
1435.71	1.40836
1437.29	1.58704
1438.86	1.3732
1440.43	1.76963
1442	2.00968
1443.57	1.97527
1445.14	1.98054
1446.71	2.49703
1448.28	1.59843
1449.85	1.89917
1451.42	1.70886
1452.99	1.696
1454.56	1.62446
1456.13	2.18247
1457.7	1.53961
1459.26	2.13528
1460.83	0.977829
1462.4	1.57008
1463.97	1.21649
1465.54	1.56981
1467.1	1.60814
1468.67	1.48972
1470.23	0.901287
1471.8	1.39326
1473.36	1.376
1474.93	1.71244
1476.49	1.10804
1478.06	1.05282
1479.62	0.840731
1481.19	1.41259
1482.75	0.730024
1484.31	0.733311
1485.88	0.716688
1487.44	0.914811
1489	0.583028
1490.56	0.386913
1492.13	0.560658
1493.69	0.283007
1495.25	0.180024
1496.81	0.73884
1498.37	0.2453
1499.93	0.880655
1501.49	0.506063
1503.05	0.656887
1504.61	-0.0830278
1506.17	0.630368
1507.73	0.104239
1509.28	0.119195
1510.84	0.306808
1512.4	0.165644
1513.96	0.71735
1515.52	0.518216
1517.07	0.531276
1518.63	0.64086
1520.19	0.616653
1521.74	1.18582
1523.3	1.00803
1524.85	0.524469
1526.41	0.555993
1527.96	0.73894
1529.52	1.30116
1531.07	0.874502
1532.63	0.411599
1534.18	0.935349
1535.73	1.11831
1537.29	0.999464
1538.84	1.07023
1540.39	0.745228
1541.94	0.835363
1543.5	0.737039
1545.05	1.25914
1546.6	1.2729
1548.15	0.929999
1549.7	1.33748
1551.25	1.05154
1552.8	0.972402
1554.35	1.1933
1555.9	1.34044
1557.45	0.835761
1559	1.19158
1560.55	1.38105
1562.1	1.23618
1563.65	0.980381
1565.19	1.58334
1566.74	1.30944
1568.29	1.94979
1569.83	1.80593
1571.38	1.96035
1572.93	2.15183
1574.47	1.50315
1576.02	1.91853
1577.56	1.66208
1579.11	1.89141
1580.66	2.06538
1582.2	2.07209
1583.74	1.85545
1585.29	2.05052
1586.83	1.92838
1588.38	2.10553
1589.92	1.55283
1591.46	1.56087
1593.01	1.83062
1594.55	1.68818
1596.09	2.05159
1597.63	1.70341
1599.17	1.80561
1600.71	2.05863
1602.25	2.14342
1603.79	1.62734
1605.34	1.91796
1606.88	1.75643
1608.41	1.4802
1609.95	2.27311
1611.49	1.65429
1613.03	1.97308
1614.57	1.25807
1616.11	1.80021
1617.65	1.08629
1619.18	1.38586
1620.72	1.10597
1622.26	1.50149
1623.79	1.29853
1625.33	1.02076
1626.87	1.37869
1628.4	1.32367
1629.94	0.912141
1631.48	0.836545
1633.01	1.13426
1634.55	1.46923
1636.08	1.50607
1637.61	1.54372
1639.15	2.15984
1640.68	1.69462
1642.21	1.30367
1643.75	1.95478
1645.28	1.37588
1646.81	1.41055
1648.34	1.6493
1649.88	1.27535
1651.41	1.68213
1652.94	2.07108
1654.47	2.03432
1656	1.59043
1657.53	1.98051
1659.06	1.94357
1660.59	1.66478
1662.12	1.66246
1663.65	1.32638
1665.18	1.71064
1666.71	1.24572
1668.24	1.29882
1669.76	1.57438
1671.29	1.86946
1672.82	1.74172
1674.35	0.988348
1675.87	1.41338
1677.4	1.85583
1678.93	1.4139
1680.45	1.13692
1681.98	1.04335
1683.5	0.967968
1685.03	0.323911
1686.55	0.726242
1688.08	1.16513
1689.6	0.504791
1691.13	1.16358
1692.65	0.138175
1694.17	0.430673
1695.7	0.101157
1697.22	0.794975
1698.74	0.556413
1700.27	0.609752
1701.79	-0.0486741
1703.31	0.168103
1704.83	0.183793
1706.35	0.490188
1707.87	0.0323291
1709.39	0.410671
1710.91	0.244021
1712.43	0.476698
1713.95	0.43736
1715.47	0.180913
1716.99	0.612135
1718.51	0.518434
1720.03	-0.0988245
1721.55	0.20522
1723.07	-0.0676498
1724.58	0.327267
1726.1	0.326666
1727.62	0.327176
1729.13	-0.139379
1730.65	-0.225327
1732.17	0.383027
1733.68	0.102065
1735.2	0.0359111
1736.72	-0.323474
1738.23	0.0321708
1739.74	0.0670319
1741.26	0.39526
1742.77	0.451821
1744.29	0.362443
1745.8	0.127943
1747.32	0.11697
1748.83	0.195649
1750.34	-0.177078
1751.85	0.561629
1753.37	0.572651
1754.88	-0.144648
1756.39	-0.0289884
1757.9	0.117874
1759.41	0.434351
1760.92	0.295878
1762.44	0.330761
1763.95	-0.114772
1765.46	0.0859861
1766.96	0.0767388
1768.47	-0.193214
1769.98	0.261927
1771.49	-0.0254307
1773	0.371302
1774.51	-0.0095582
1776.02	0.0248327
1777.53	-0.0141301
1779.03	0.0288739
1780.54	0.0786209
1782.05	-0.276211
1783.55	-0.11541
1785.06	-0.0450468
1786.57	-0.106325
1788.07	-0.0839653
1789.58	-0.0248551
1791.08	-0.0145168
1792.59	0.195313
1794.09	-0.0682554
1795.6	0.215277
1797.1	0.206298
1798.61	-0.0521259
1800.11	0.228551
1801.61	0.158531
1803.12	-0.30092
1804.62	-0.000493526
1806.12	0.11256
1807.62	0.175193
1809.12	0.190753
1810.63	0.212821
1812.13	0.282946
1813.63	0.231936
1815.13	0.288476
1816.63	0.240451
1818.13	0.323373
1819.63	0.291642
1821.13	0.306217
1822.63	0.13827
1824.13	-0.287061
1825.63	-0.0158539
1827.13	0.200932
1828.62	0.266687
1830.12	-0.0677295
1831.62	0.142839
1833.12	0.350847
1834.61	0.370438
1836.11	0.160652
1837.61	-0.00119448
1839.1	0.36606
1840.6	0.0916848
1842.09	0.00451946
1843.59	0.301881
1845.09	0.153311
1846.58	0.244966
1848.08	0.292598
1849.57	0.0811453
1851.06	0.159379
1852.56	0.054708
1854.05	-0.0626497
1855.54	0.27524
1857.04	-0.018291
1858.53	0.420651
1860.02	0.269243
1861.51	0.211955
1863.01	0.0903778
1864.5	-0.147788
1865.99	-0.0956988
1867.48	0.0497561
1868.97	-0.0359349
1870.46	0.00299358
1871.95	0.330122
1873.44	-0.240602
1874.93	-0.144968
1876.42	-0.243269
1877.91	0.268361
1879.4	0.157895
1880.89	0.119205
1882.37	0.361834
1882.46	0.377989
1883.95	0.116303
1885.45	-0.145858
1886.94	0.0269289
1888.43	0.216492
1889.93	-0.0637884
1891.42	0.143935
1892.91	0.474562
1894.41	0.0417204
1895.9	-0.0768561
1897.39	0.500905
1898.88	0.0699329
1900.37	-0.118438
1901.86	0.0745721
1903.36	-0.15136
1904.85	0.473461
1906.34	0.210854
1907.83	0.122116
1909.32	0.172816
1910.81	0.258963
1912.29	0.0856314
1913.78	0.103646
1915.27	0.173768
1916.76	0.781036
1918.25	0.208921
1919.74	0.26051
1921.23	0.069469
1922.71	-0.103821
1924.2	-0.241703
1925.69	0.123384
1927.17	0.42012
1928.66	0.0941739
1930.15	0.166426
1931.63	-0.194895
1933.12	0.273792
1934.6	0.204161
1936.09	0.133146
1937.57	-0.0252752
1939.06	0.0752778
1940.54	0.055038
1942.02	0.311639
1943.51	-0.0348763
1944.99	0.154181
1946.47	0.240019
1947.96	0.0843544
1949.44	0.548356
1950.92	0.0124111
1952.4	0.40549
1953.88	0.350452
1955.37	0.450047
1956.85	0.429618
1958.33	0.392637
1959.81	0.510725
1961.29	0.0804791
1962.77	0.0792809
1964.25	0.454869
1965.73	0.298811
1967.21	0.638675
1968.69	0.139402
1970.16	-0.0178585
1971.64	0.422701
1973.12	-0.144482
1974.6	-0.0626392
1976.08	-0.100084
1977.55	0.0670581
1979.03	0.131926
1980.51	0.179672
1981.98	0.0742207
1983.46	0.223473
1984.94	0.626821
1986.41	0.266094
1987.89	0.160112
1989.36	0.206948
1990.84	-0.0334268
1992.31	0.167005
1993.79	0.232825
1995.26	0.130294
1996.73	0.0282116
1998.21	0.297729
1999.68	0.465407
2001.15	0.00804758
2002.63	0.0735626
2004.1	0.122018
2005.57	-0.368525
2007.04	-0.100119
2008.51	-0.0837235
2009.99	0.03438
2011.46	0.119223
2012.93	0.170438
2014.4	0.153987
2015.87	0.153729
2017.34	-0.11638
2018.81	0.251864
2020.28	0.13201
2021.75	0.331218
2023.21	0.429769
2024.68	0.293988
2026.15	0.276706
2027.62	0.260635
2029.09	0.229047
2030.56	0.316013
2032.02	0.588447
2033.49	0.122875
2034.96	0.0767956
2036.42	0.164769
2037.89	0.285954
2039.36	0.171562
2040.82	0.0906696
2042.29	0.0772953
2043.75	0.569097
2045.22	0.775994
2046.68	0.108325
2048.14	0.265605
2049.61	0.321683
2051.07	0.461275
2052.54	0.161165
2054	0.331693
2055.46	-0.140068
2056.93	0.078424
2058.39	0.127575
2059.85	0.0754552
2061.31	0.394115
2062.77	0.0904293
2064.23	0.141127
2065.7	0.377756
2067.16	0.329002
2068.62	0.146103
2070.08	0.249594
2071.54	0.218483
2073	0.355624
2074.46	0.374695
2075.92	0.427166
2077.38	0.395122
2078.83	0.076458
2080.29	0.616221
2081.75	0.347242
2083.21	0.279784
2084.67	0.17808
2086.12	0.0421834
2087.58	0.242168
2089.04	0.508834
2090.49	0.20393
2091.95	0.470092
2093.41	0.70234
2094.86	0.0788145
2096.32	0.209829
2097.77	0.122391
2099.23	0.35254
2100.68	0.531876
2102.14	0.2432
2103.59	0.189388
2105.05	0.587311
2106.5	0.685769
2107.95	0.418169
2109.41	0.384473
2110.86	0.367042
2112.31	-0.00138617
2113.76	-0.137648
2115.21	0.240832
2116.67	0.0360293
2118.12	0.429779
2119.57	0.392416
2121.02	0.373273
2122.47	0.173327
2123.92	0.687718
2125.37	0.290618
2126.82	0.622911
2128.27	0.307796
2129.72	0.405993
2131.17	0.701769
2132.62	0.367504
2134.07	0.76146
2135.51	0.725729
2136.96	0.559023
2138.41	0.559197
2139.86	0.808858
2141.31	0.828579
2142.75	0.667452
2144.2	0.606025
2145.65	0.59433
2147.09	1.04598
2148.54	0.735539
2149.98	0.556723
2151.43	0.625544
2152.87	0.710114
2154.32	0.992799
2155.76	0.430115
2157.21	1.0437
2158.65	1.02834
2160.1	0.898138
2161.54	0.835642
2162.98	0.940441
2164.43	0.963742
2165.87	1.15384
2167.31	1.09497
2168.75	1.13489
2170.2	0.508049
2171.64	0.993657
2173.08	0.778994
2174.52	0.912472
2175.96	1.09526
2177.4	0.629661
2178.84	0.979442
2180.28	0.831251
2181.72	1.01633
2183.16	0.7696
2184.6	0.822417
2186.04	0.842046
2187.48	0.82842
2188.92	0.864749
2190.36	0.884432
2191.79	1.23687
2193.23	1.02266
2194.67	0.990458
2196.11	0.890132
2197.54	1.08766
2198.98	0.651593
2200.42	0.514298
2201.85	0.42685
2203.29	0.97049
2204.72	0.735034
2206.16	0.716159
2207.59	0.979408
2209.03	0.629591
2210.46	0.742909
2211.9	0.855246
2213.33	0.537
2214.77	0.582458
2216.2	0.380712
2217.63	0.823531
2219.07	0.70629
2220.5	0.771227
2221.93	0.49016
2223.36	0.291101
2224.8	0.0087862
2226.23	0.43306
2227.66	0.740199
2229.09	0.208003
2230.52	0.578602
2231.95	0.62042
2233.39	0.400446
2234.81	0.459534
2236.25	0.356081
2237.67	0.303059
2239.1	0.218998
2240.53	0.70753
2241.96	0.757047
2243.39	0.285729
2244.82	0.646572
2246.25	0.14242
2247.68	0.534091
2249.1	0.304269
2250.53	0.382399
2251.96	0.0682635
2253.38	0.290636
2254.81	0.0253615
2256.24	0.427267
2257.66	0.132832
2259.09	0.16534
2260.51	0.946568
2261.94	0.805174
2263.36	0.291535
2264.79	0.135121
2266.21	0.449789
2267.64	0.520115
2269.06	0.557173
2270.49	0.430774
2271.91	0.206173
2273.33	0.290748
2274.76	0.212519
2276.18	0.264766
2277.6	0.561652
2279.02	0.33708
2280.44	0.356939
2281.87	0.229911
2283.29	0.2822
2284.71	0.579315
2286.13	0.142233
2287.55	-0.0172386
2288.97	0.0358634
2290.39	0.0566511
2291.81	-0.23291
2293.23	0.344139
2294.65	0.299954
2296.07	0.304763
2297.49	-0.0179768
2298.91	0.347095
2300.33	0.450397
2301.74	0.504838
2303.16	0.116626
2304.58	0.433953
2306	-0.0531654
2307.41	0.18192
2308.83	0.00583315
2310.25	0.306007
2311.66	0.293509
2313.08	0.0999656
2314.5	0.0876541
2315.91	-0.138158
2317.33	0.328374
2318.74	-0.0613856
2320.16	0.224484
2321.57	0.0972576
2322.98	0.199512
2324.4	0.299895
2325.81	0.117898
2327.23	0.957054
2328.64	0.525565
2330.05	0.358232
2331.46	0.0765347
2332.88	0.190952
2334.29	0.273106
2335.7	0.240294
2337.11	0.174262
2338.52	0.189694
2339.94	0.187742
2341.35	-0.192711
2342.76	0.247464
2344.17	-0.165802
2345.58	-0.0702515
2346.99	-0.187527
2348.4	0.251936
2349.81	0.00347042
2351.22	0.261491
2352.62	-0.184022
2354.03	0.0395308
2355.44	0.0827661
2356.85	0.141902
2358.26	-0.352148
2359.67	0.30855
2361.07	-0.168233
2362.48	0.00452948
2363.89	-0.0175128
2365.29	0.122226
2366.7	-0.287696
2368.11	-0.00206375
2369.51	-0.038785
2370.92	0.183509
2372.32	-0.0122695
2373.73	0.034524
2375.13	0.69328
2376.54	0.0961995
2377.94	0.36721
2379.35	0.0902567
2380.75	0.358223
2382.15	0.127339
2383.56	-0.0397162
2384.96	0.0813503
2386.36	0.154499
2387.76	0.228187
2389.17	0.207037
2390.57	0.0117064
2391.97	0.00866461
2393.37	0.229212
2394.77	0.0685191
2396.17	-0.202746
2397.58	0.194189
2398.98	-0.0600805
2400.38	0.210403
2401.78	0.322221
2403.18	-0.0265059
2404.58	0.243857
2405.97	0.132435
2407.37	-0.0114121
2408.77	0.0504031
2410.17	0.0484591
2411.57	-0.016705
2412.97	0.203882
2414.37	-0.287112
2415.76	0.173053
2417.16	0.206842
2418.56	0.352248
2419.95	0.371339
2421.35	-0.0848508
2422.75	0.314029
2424.14	0.110693
2425.54	0.129187
2426.93	0.306578
2428.33	0.183545
2429.72	0.203944
2431.12	0.320156
2432.51	0.135005
2433.91	0.171627
2435.3	0.255042
2436.7	0.400826
2438.09	-0.0742936
2439.48	-0.0261431
2440.88	-0.042285
2442.27	0.226876
2443.66	0.146486
2445.05	-0.187773
2446.44	0.302572
2447.84	0.190162
2449.23	0.157036
2450.62	0.124117
2452.01	-0.17743
2453.4	-0.288301
2454.79	-0.0978761
2456.18	0.298697
2457.57	-0.000494003
2458.96	0.143115
2460.35	-0.251451
2461.74	0.0175662
2463.13	-0.330627
2464.52	0.426932
2465.91	-0.0482268
2467.29	0.36094
2468.68	-0.255909
2470.07	0.184323
2471.46	0.0405259
2472.85	-0.0406365
2474.23	-0.0435925
2475.62	0.283271
2477.01	0.279223
2478.39	-0.0703874
2479.78	-0.0583839
2481.16	-0.124665
2482.55	0.373161
2483.93	-0.0694895
2485.32	0.0353665
2486.7	0.389085
2488.09	0.0700541
2489.47	0.0784678
2490.86	0.117852
2492.24	0.157531
2493.62	-0.345509
2495.01	0.0377641
2496.39	-0.35365
2497.77	0.0461607
2499.15	-0.0961027
2500.54	-0.0527949
2501.92	0.159849
2503.3	-0.107346
2504.68	0.134301
2506.06	0.0359278
2507.45	-0.0778341
2508.83	0.0393567
2510.21	0.0337634
2511.59	-0.18611
2512.97	0.00892401
2514.35	0.0358377
2515.73	0.415458
2517.11	0.198664
2518.48	-0.0327134
2519.86	-0.0497546
2521.24	0.14685
2522.62	0.0984869
2524	-0.347057
2525.38	0.152439
2526.75	-0.369397
2528.13	0.0380807
2529.51	-0.0255637
2530.89	0.1097
2532.26	0.246233
2533.64	0.17116
2535.02	0.354992
2536.39	0.037468
2537.77	0.296722
2539.14	-0.158705
2540.52	-0.0831494
2541.89	0.295599
2543.27	0.234293
2544.64	0.204041
2546.01	0.220306
2547.39	-0.0809588
2548.76	0.34662
2550.14	-0.0904641
2551.51	0.321821
2552.88	0.0201216
2554.25	-0.267211
2555.63	-0.266897
2557	0.385187
2558.37	0.00567436
2559.74	-0.100562
2561.11	0.17258
2562.49	0.112761
2563.86	-0.173873
2565.23	0.221785
2566.6	0.0114918
2567.97	-0.198741
2569.34	0.106322
2570.71	-0.149386
2572.08	0.0193243
2573.45	0.112329
2574.82	0.0841503
2576.18	-0.11077
2577.55	0.285551
2578.92	0.151038
2580.29	0.00107431
2581.66	0.0630641
2583.02	-0.178485
2584.39	0.216535
2585.76	0.308258
2587.13	-0.130429
2588.49	0.128268
2589.86	0.08394
2591.22	0.069839
2592.59	-0.0355306
2593.96	0.191775
2595.32	0.342404
2596.69	-0.340472
2598.05	0.0810852
2599.42	0.0180178
2600.78	-0.165787
2602.14	0.104067
2603.51	0.011909
2604.87	0.538983
2606.23	0.281461
2607.6	0.159595
2608.96	0.0220895
2610.32	-0.0107865
2611.69	0.0305772
2613.05	-0.0644135
2614.41	0.0955205
2615.77	0.164857
2617.13	0.204247
2618.49	0.0493426
2619.86	-0.119611
2621.22	0.265548
2622.58	0.127614
2623.94	0.124463
2625.3	-0.221936
2626.66	-0.120681
2628.02	0.442119
2629.37	0.110407
2630.73	-0.146568
2632.09	0.28063
2633.45	0.023798
2634.81	-0.0248437
2636.17	-0.132751
2637.53	0.307791
2638.88	0.229434
2640.24	-0.0558028
2641.6	0.36923
2642.96	0.129082
2644.31	0.0813413
2645.67	0.107385
2647.02	0.221531
2648.38	0.393857
2649.74	-0.18534
2651.09	-0.146504
2652.45	0.00948334
2653.8	0.0479369
2655.16	-0.27955
2656.51	0.243857
2657.86	0.182001
2659.22	0.267266
2660.57	0.162728
2661.93	0.292032
2663.28	-0.0466828
2664.63	-0.122882
2665.98	0.179651
2667.34	0.262699
2668.69	-0.018527
2670.04	0.370227
2671.39	-0.0408587
2672.75	0.261118
2674.09	0.0549793
2675.45	0.154341
2676.8	-0.0215831
2678.15	0.19475
2679.5	0.208636
2680.85	0.252367
2682.2	0.311585
2683.55	0.0237951
2684.9	-0.0892739
2686.25	0.305821
2687.6	0.149553
2688.94	0.0358176
2690.29	0.0513778
2691.64	0.13803
2692.99	0.368455
2694.34	0.249803
2695.68	0.203558
2697.03	0.0419559
2698.38	0.0407939
2699.73	0.359527
2701.07	0.245304
2702.42	0.0598717
2703.76	0.0490718
2705.11	0.415632
2706.45	0.0573888
2707.8	0.119425
2709.15	0.311839
2710.49	-0.0477495
2711.83	0.23137
2713.18	0.176337
2714.52	0.0776105
2715.87	0.00785732
2717.21	0.141575
2718.55	0.0133047
2719.9	-0.0716577
2721.24	0.381464
2722.58	0.208449
2723.93	0.0932407
2725.27	0.181455
2726.61	0.22569
2727.95	-0.00686359
2729.29	0.12424
2730.63	0.415251
2731.98	0.240602
2733.32	0.28427
2734.66	0.284438
2736	0.241143
2737.34	0.168886
2738.68	0.329319
2740.02	0.0823631
2741.36	-0.252155
2742.7	0.183423
2744.03	-0.0793676
2745.37	0.0207129
2746.71	0.14941
2748.05	0.103651
2749.39	-0.304767
2750.72	0.172009
2752.06	-0.206755
2753.4	0.284515
2754.74	-0.00676298
2756.07	-0.0370378
2757.41	-0.110606
2758.75	0.0187283
2760.08	-0.0108938
2761.42	0.220361
2762.76	-0.184709
2764.09	-0.111986
2765.42	0.0620184
2766.76	0.279056
2768.09	-0.300247
2769.43	0.435583
2770.76	0.432502
2772.1	-0.308256
2773.43	0.163397
2774.76	0.028266
2776.1	0.0373631
2777.43	-0.11158
2778.76	0.128435
2780.1	0.210448
2781.43	0.306987
2782.76	0.0733938
2784.09	0.0121727
2785.42	-0.120654
2786.75	0.076262
2788.09	-0.170426
2789.42	-0.0728588
2790.75	-0.246408
2792.08	0.138408
2793.41	0.294703
2794.74	-0.0921183
2796.07	-0.207527
2797.4	0.0623746
2798.73	-0.0253267
2800.06	-0.0276704
2801.39	-0.0587616
2802.71	0.309263
2804.04	0.00690985
2805.37	0.231527
2806.7	-9.9659e-005
2808.03	-0.032794
2809.35	0.033699
2810.68	-0.0987296
2812.01	0.110084
2813.33	-0.176877
2814.66	-0.00875044
2815.99	0.302183
2817.31	0.174599
2818.64	-0.108379
2819.96	-0.263765
2821.29	0.147443
2822.61	0.0478802
2823.94	0.0470228
2825.26	0.187516
2826.59	0.172194
2827.91	0.298874
2829.23	0.157002
2830.56	0.270348
2831.88	-0.0266414
2833.21	0.28502
2834.53	0.667169
2835.85	0.553506
2837.17	0.566774
2838.5	0.395773
2839.82	0.210541
2841.14	0.25169
2842.46	0.448624
2843.78	0.504668
2845.1	0.504751
2846.42	0.745583
2847.74	0.746473
2849.06	0.591921
2850.38	1.14385
2851.71	1.00281
2853.03	1.05924
2854.34	0.903362
2855.66	1.08646
2856.98	1.07172
2858.3	1.15589
2859.62	1.57897
2860.94	1.47934
2862.26	1.43595
2863.57	1.53342
2864.89	1.88459
2866.21	1.84057
2867.53	1.71216
2868.84	1.88026
2870.16	1.97817
2871.48	2.00572
2872.79	2.41358
2874.11	2.36976
2875.42	2.49409
2876.74	2.16684
2878.05	2.24728
2879.37	2.32737
2880.68	2.40762
2882	2.34797
2883.31	2.14881
2884.63	2.16118
2885.94	2.08984
2887.26	2.48177
2888.57	2.19965
2889.88	2.33787
2891.19	2.19486
2892.51	2.42987
2893.82	2.27226
2895.13	2.56316
2896.44	2.68652
2897.76	2.62877
2899.07	2.57192
2900.38	2.36188
2901.69	2.43205
2903	2.85208
2904.31	2.51687
2905.62	2.96519
2906.93	2.88244
2908.24	2.95423
2909.55	3.46047
2910.86	3.37965
2912.17	3.24282
2913.48	3.28732
2914.79	3.6107
2916.1	3.68061
2917.41	3.74914
2918.71	4.25047
2920.02	4.03798
2921.33	4.21767
2922.64	4.34243
2923.94	4.38452
2925.25	4.38569
2926.56	4.30356
2927.86	4.73873
2929.17	5.01984
2930.48	4.04224
2931.78	4.7418
2933.09	4.74213
2934.39	4.64458
2935.7	4.85462
2937	4.36602
2938.31	4.26892
2939.61	4.6751
2940.92	4.17344
2942.22	4.14759
2943.53	4.08082
2944.83	3.97324
2946.13	3.82465
2947.43	3.55057
2948.74	3.93394
2950.04	3.7426
2951.34	3.50767
2952.64	3.25711
2953.95	3.74744
2955.25	3.41134
2956.55	3.20199
2957.85	3.41421
2959.15	2.99873
2960.45	3.11751
2961.75	3.26621
2963.05	3.26155
2964.35	3.13011
2965.65	2.91303
2966.95	3.42513
2968.25	2.86799
2969.55	2.71764
2970.85	2.79214
2972.15	2.69809
2973.45	2.53393
2974.75	2.93274
2976.05	2.48645
2977.34	2.55997
2978.64	2.50531
2979.94	2.32247
2981.24	2.32152
2982.53	2.03873
2983.83	2.36097
2985.13	2.06548
2986.42	1.57467
2987.72	1.75964
2989.01	1.77683
2990.31	1.54131
2991.61	1.45999
2992.9	1.49025
2994.19	0.901218
2995.49	0.999854
2996.78	0.971445
2998.08	1.15336
2999.37	0.942535
3000.67	1.08284
3001.96	0.999247
3003.25	0.916058
3004.55	0.69293
3005.84	0.469736
3007.13	0.470207
3008.42	0.553967
3009.72	0.469118
3011.01	0.579387
3012.3	0.130644
3013.59	0.435921
3014.88	0.448293
3016.17	0.210442
3017.46	0.251931
3018.76	0.238131
3020.05	0.168793
3021.34	0.349384
3022.63	0.167941
3023.92	0.263546
3025.21	0.316748
3026.49	0.438887
3027.78	0.450437
3029.07	0.0757298
3030.36	0.393592
3031.65	0.201333
3032.94	0.258598
3034.23	-0.00130606
3035.51	0.152452
3036.8	0.139597
3038.09	0.18045
3039.38	0.329806
3040.66	0.491242
3041.95	0.459276
3043.23	0.468418
3044.52	-0.0556526
3045.81	-0.00292158
3047.09	0.147017
3048.38	0.134775
3049.66	0.397221
3050.95	0.319726
3052.23	0.406691
3053.52	0.370887
3054.8	0.22544
3056.09	0.324708
3057.37	0.900123
3058.65	0.234395
3059.94	0.617634
3061.22	0.551625
3062.5	0.391264
3063.79	0.313734
3065.07	0.645342
3066.35	0.407119
3067.63	0.360071
3068.92	0.326953
3070.2	0.429635
3071.48	0.150815
3072.76	0.156643
3074.04	-0.0968208
3075.32	0.124743
3076.6	0.237144
3077.88	0.227563
3079.16	0.0424504
3080.44	0.143492
3081.72	-0.120484
3083	0.0506363
3084.28	0.0459795
3085.56	-0.162177
3086.84	0.212919
3088.12	0.221007
3089.4	-0.13792
3090.67	0.140653
3091.95	-0.0829778
3093.23	-0.211456
3094.51	-0.0819931
3095.78	-0.0743818
3097.06	-0.134477
3098.34	0.0358167
3099.61	0.111077
3100.89	-0.20662
3102.17	-0.063653
3103.44	0.147134
3104.72	0.128113
3105.99	0.0555458
3107.27	0.186706
3108.54	-0.0873036
3109.82	0.194422
3111.09	0.084425
3112.37	0.00206661
3113.64	-0.0258021
3114.92	0.0140939
3116.19	0.229959
3117.46	-0.0837207
3118.74	-0.0185022
3120.01	0.0594087
3121.28	0.312793
3122.55	0.0776234
3123.83	0.12695
3125.1	-0.229844
3126.37	-0.125816
3127.64	-0.0620246
3128.91	0.110335
3130.19	0.134153
3131.46	0.144528
3132.73	-0.128951
3134	0.137784
3135.27	0.309371
3136.54	-0.0323825
3137.81	0.178693
3139.08	0.389151
3140.35	-0.073875
3141.62	0.405296
3142.89	0.306106
3144.16	0.355146
3145.42	0.257026
3146.69	0.226628
3147.96	0.384364
3149.23	0.448651
