200.533	0.0255718
202.348	0.0520382
204.162	0.0794106
205.976	-0.23304
207.792	0.427294
209.605	0.235846
211.418	-0.563805
213.23	0.0439043
215.044	-0.102228
216.856	0.163157
218.667	0.59759
220.478	0.52363
222.289	0.426318
224.102	0.0880737
225.912	-0.0803699
227.721	0.258503
229.531	0.499988
231.34	-0.10413
233.148	-0.0567732
234.956	0.159523
236.766	0.135694
238.574	0.234167
240.381	0.262529
242.188	-0.382308
243.994	0.7344
245.801	0.403768
247.606	0.457513
249.412	0.484422
251.217	0.266785
253.024	0.312069
254.828	0.452045
256.632	0.374413
258.436	-0.208528
260.239	0.607642
262.042	0.341221
263.845	0.4617
265.647	0.125271
267.449	0.487804
269.25	0.126888
271.052	-0.0180473
272.852	0.318028
274.653	0.652666
276.453	0.310597
278.253	0.737962
280.052	-0.209905
281.852	-0.340258
283.65	-0.231673
285.449	0.0915709
287.247	-0.13861
289.044	0.135082
290.842	0.408861
292.639	0.707266
294.436	0.289103
296.232	0.0878658
298.028	0.532962
299.821	-0.550949
301.617	0.276306
303.412	0.60072
305.206	0.326993
307	0.529621
308.794	0.08815
310.588	0.00496864
312.381	-0.124758
314.172	0.223211
315.964	0.215594
317.756	1.20983
319.548	1.11017
321.34	0.749361
323.131	0.460422
324.921	0.457837
326.71	0.240358
328.5	0.547975
330.29	0.568375
332.079	0.276655
333.868	-0.0169706
335.654	0.453013
337.443	0.968697
339.231	0.118501
341.018	0.678279
342.804	0.997739
344.591	0.647846
346.377	0.704709
348.163	-0.19294
349.947	0.557429
351.733	0.472094
353.518	0.00442123
355.303	-0.0584831
357.085	0.831123
358.869	0.527025
360.653	0.388854
362.435	-0.225948
364.218	0.704954
366.001	0.0181656
367.781	0.352396
369.563	-0.310697
371.345	0.921555
373.124	0.470645
374.905	0.0440102
376.686	0.0432463
378.464	0.420195
380.244	0.231862
382.022	0.680408
383.801	0.847253
385.58	0.356935
387.357	0.479138
389.135	0.273425
390.911	0.608874
392.689	0.545765
394.466	0.107479
396.241	0.961148
398.018	0.123976
399.792	0.0850773
401.568	0.304129
403.341	0.45209
405.117	0.129601
406.889	0.205677
408.664	0.0229015
410.436	0.426696
412.21	0.525273
413.981	0.178377
415.755	-0.167807
417.525	0.237564
419.298	0.479307
421.068	0.345792
422.84	0.165035
424.609	0.476569
426.38	0.153386
428.149	0.134613
429.919	-0.0489035
431.688	0.0726967
433.455	0.57007
435.225	0.715713
436.992	0.650086
438.76	-0.472319
440.527	0.140621
442.293	0.798265
444.06	0.609226
445.826	0.442081
447.593	0.297474
449.357	0.38653
451.122	0.755871
452.888	0.0044384
454.651	-0.0458488
456.415	0.160275
458.18	0.0631933
459.942	0.199028
461.705	-0.455306
463.469	0.217256
465.23	-0.0146589
466.991	0.290482
468.752	0.319295
470.515	0.303351
472.275	0.218104
474.035	-0.170625
475.797	0.230631
477.556	0.1642
479.315	0.25914
481.073	0.376472
482.834	0.214471
484.592	0.472817
486.349	0.29044
488.106	0.133208
489.863	0.234231
491.622	0.359741
493.378	0.275778
495.134	0.542665
496.889	0.201319
498.645	0.51515
500.401	0.500796
502.156	0.46232
503.91	0.0236301
505.664	0.452947
507.417	0.81091
509.171	0.60309
510.923	0.675976
512.678	0.512046
514.43	0.69964
516.182	0.65062
517.933	0.482892
519.684	0.408376
521.435	-0.0192041
523.186	0.774344
524.936	0.886214
526.686	0.810293
528.435	0.664145
530.184	-0.0912333
531.933	0.840129
533.682	0.529075
535.43	0.334267
537.18	0.769405
538.927	0.0117798
540.674	0.350691
542.421	0.129097
544.167	0.675371
545.913	0.430326
547.659	0.255671
549.403	0.0816698
551.148	0.487123
552.893	-0.102708
554.637	-0.0903587
556.381	0.199192
558.125	0.350183
559.868	0.340104
561.611	0.238511
563.354	0.528644
565.097	0.704004
566.839	-0.475444
568.581	-0.0228291
570.322	-0.487578
572.063	0.127439
573.802	0.330865
575.542	-0.12932
577.283	-0.473429
579.022	-0.0590591
580.762	0.241534
582.501	0.519545
584.24	0.0616131
585.976	0.476326
587.714	-0.145094
589.452	0.543593
591.19	0.633309
592.927	0.101335
594.663	0.259465
596.398	0.0265331
598.134	0.0236444
599.87	0.227482
601.605	0.315495
603.338	0.42529
605.073	0.280753
606.808	0.318954
608.542	0.12674
610.274	0.692004
612.007	-0.0273809
613.74	0.446886
615.473	0.0275974
617.204	0.639737
618.936	0.609673
620.668	0.555696
622.397	0.0202255
624.128	-0.0581236
625.859	0.0920963
627.588	0.174658
629.318	-0.0376883
631.048	-0.156504
632.775	0.342643
634.505	0.500546
636.233	0.475548
637.96	0.015172
639.688	0.259907
641.416	0.159559
643.142	0.285025
644.869	-0.0462122
646.594	0.260405
648.32	0.113709
650.045	0.401815
651.771	0.807078
653.496	0.579885
655.219	0.378374
656.944	0.656847
658.667	0.41249
660.391	0.62358
662.113	1.06192
663.837	0.858699
665.558	0.0813141
667.281	0.445117
669.002	1.17433
670.724	-0.0169983
672.444	0.898188
674.166	-0.0611553
675.885	0.515674
677.606	0.704703
679.325	0.802356
681.045	0.807272
682.763	0.741424
684.483	0.53532
686.2	0.442291
687.917	1.08479
689.636	0.781981
691.352	0.823967
693.07	0.819271
694.786	0.744752
696.501	0.577195
698.219	1.14522
699.933	0.469054
701.65	0.482378
703.364	0.908501
705.078	1.05777
706.793	1.34399
708.506	0.918505
710.219	0.768279
711.934	0.778186
713.646	0.10164
715.358	1.20853
717.071	0.852202
718.782	0.0860386
720.493	0.779966
722.204	0.903578
723.916	1.14077
725.626	1.1274
727.336	0.682238
729.045	1.55357
730.756	0.835931
732.464	1.09317
734.173	0.98772
735.881	0.859951
737.59	1.34241
739.297	1.01256
741.004	1.02233
742.711	1.39366
744.417	1.29312
746.125	1.89167
747.831	1.45642
749.537	1.76497
751.242	1.71492
752.946	1.98111
754.651	1.64138
756.357	1.12293
758.061	1.41614
759.764	1.86882
761.467	1.30864
763.17	1.33479
764.872	1.40587
766.575	1.72446
768.276	1.29556
769.978	1.92701
771.679	1.83297
773.382	1.69229
775.083	1.23464
776.783	1.74983
778.483	1.52014
780.182	2.1287
781.882	2.17311
783.581	2.14977
785.279	1.42349
786.978	1.64551
788.676	1.97752
790.373	1.80834
792.071	1.88531
793.768	2.11862
795.464	1.5843
797.161	1.6153
798.857	1.6704
800.552	1.68218
802.248	1.8753
803.941	1.934
805.636	2.10485
807.33	2.25224
809.024	1.76949
810.718	1.06179
812.412	1.60994
814.105	1.86542
815.798	1.56058
817.49	1.83775
819.183	1.55582
820.873	2.07839
822.564	1.75265
824.256	2.05249
825.947	2.17512
827.637	2.07709
829.328	1.87056
831.016	1.91206
832.705	1.57763
834.395	1.89138
836.084	1.35886
837.772	1.65127
839.459	1.5409
841.147	1.33956
842.835	1.67306
844.522	1.82747
846.209	1.42386
847.894	1.49128
849.581	1.51638
851.267	1.05127
852.953	1.75269
854.637	1.85056
856.322	1.49919
858.007	1.79805
859.689	1.51069
861.374	1.37876
863.058	1.67316
864.739	1.35804
866.423	1.60541
868.106	1.60424
869.787	0.971111
871.469	1.82624
873.151	0.876571
874.831	1.59629
876.512	1.00732
878.193	1.20815
879.872	1.63465
881.553	0.661213
883.231	1.19955
884.911	1.73679
886.591	0.602353
888.268	0.595173
889.947	1.03754
891.623	0.892084
893.302	1.44365
894.978	1.45319
896.656	1.12446
898.331	1.31188
900.008	0.80264
901.683	1.16756
903.359	0.949274
905.033	0.485559
906.709	1.40699
908.383	1.4797
910.058	1.08547
911.731	0.982131
913.405	1.10186
915.078	0.711036
916.752	1.36351
918.423	1.06178
920.096	1.3585
921.768	1.21283
923.438	1.17903
925.111	1.32356
926.781	0.873617
928.452	0.867034
930.122	0.663004
931.791	1.01124
933.462	1.07283
935.13	1.86245
936.799	0.755618
938.468	1.76695
940.136	1.08125
941.803	1.14659
943.472	0.969903
945.139	1.32267
946.805	1.03425
948.473	0.633659
950.139	1.11415
951.804	1.10786
953.471	0.61647
955.136	0.788319
956.801	0.984816
958.465	1.03008
960.131	0.769025
961.794	0.752013
963.458	0.646383
965.12	0.80441
966.785	1.07064
968.447	0.449214
970.109	0.489613
971.771	0.927356
973.432	0.569277
975.095	0.610678
976.756	1.16246
978.417	1.00799
980.077	0.898298
981.737	0.788127
983.396	0.787291
985.057	1.29373
986.716	1.0676
988.375	0.928353
990.033	1.05337
991.691	1.50912
993.349	0.926105
995.006	1.09436
996.663	0.909547
998.32	1.29816
999.976	1.11316
1001.63	0.729794
1003.29	1.33679
1004.95	0.799108
1006.6	1.185
1008.26	0.318822
1009.91	1.09991
1011.56	0.652342
1013.22	0.556417
1014.87	0.855221
1016.53	0.913276
1018.18	0.928006
1019.83	0.571711
1021.48	0.216669
1023.14	1.08687
1024.79	0.53713
1026.44	0.796585
1028.09	1.14337
1029.74	1.51125
1031.39	1.04779
1033.04	0.779538
1034.69	1.27355
1036.34	1.1769
1037.99	1.90737
1039.64	1.00412
1041.29	0.798936
1042.94	0.638776
1044.58	1.1757
1046.23	0.36752
1047.88	0.495265
1049.52	0.733118
1051.17	1.36317
1052.82	0.799364
1054.46	1.03967
1056.11	1.14965
1057.75	0.672423
1059.4	0.672886
1061.04	0.542256
1062.69	0.606564
1064.33	0.713467
1065.98	0.688886
1067.62	0.598063
1069.26	-0.384359
1070.9	0.175265
1072.55	0.104813
1074.19	0.620699
1075.83	0.746782
1077.47	0.505419
1079.11	0.070117
1080.76	0.871545
1082.4	0.588698
1084.04	0.521832
1085.68	0.843601
1087.32	1.09814
1088.95	0.354304
1090.59	0.432037
1092.23	0.422078
1093.87	0.411658
1095.51	0.444595
1097.15	0.974045
1098.78	0.362405
1100.42	0.571246
1102.06	0.717158
1103.69	0.671071
1105.33	0.7338
1106.97	0.840052
1108.6	-0.0647736
1110.24	0.47021
1111.87	1.04634
1113.51	0.76111
1115.14	0.324724
1116.77	0.531935
1118.41	0.288795
1120.04	0.710754
1121.67	0.619304
1123.31	0.379157
1124.94	0.910328
1126.57	0.607868
1128.2	0.990597
1129.83	0.625559
1131.47	0.282535
1133.1	0.517027
1134.72	0.794082
1136.36	0.172791
1137.98	0.27724
1139.62	0.359126
1141.24	0.290554
1142.87	0.434958
1144.5	0.25945
1146.13	0.489806
1147.76	0.550417
1149.38	0.718345
1151.01	0.119855
1152.64	0.0327044
1154.27	0.456206
1155.89	0.070343
1157.52	-0.421758
1159.14	0.00135136
1160.77	0.191128
1162.39	-0.170927
1164.02	0.424741
1165.64	0.340484
1167.27	-0.48821
1168.89	-0.297304
1170.51	0.359586
1172.14	-0.154276
1173.76	0.222499
1175.38	0.491532
1177	0.229718
1178.63	0.773416
1180.25	0.322174
1181.87	-0.25452
1183.49	0.459661
1185.11	0.306739
1186.73	0.0475016
1188.35	0.145783
1189.97	0.199883
1191.59	0.883605
1193.21	-0.601283
1194.83	-0.424314
1196.45	0.0456896
1198.07	0.326888
1199.68	0.337212
1201.3	0.600484
1202.92	0.594512
1204.53	0.67455
1206.15	0.547966
1207.77	0.360095
1209.38	0.798285
1211	0.964386
1212.62	0.35727
1214.23	0.49871
1215.84	0.408781
1217.46	0.670919
1219.07	0.578313
1220.69	0.361261
1222.3	0.394166
1223.91	1.04979
1225.53	0.877726
1227.14	1.26608
1228.75	1.03499
1230.36	1.34291
1231.97	1.36249
1233.59	0.37059
1235.2	1.11609
1236.81	0.56067
1238.42	1.01907
1240.03	0.982024
1241.64	0.758984
1243.25	1.19754
1244.85	1.0354
1246.46	1.16192
1248.07	1.41159
1249.68	0.956989
1251.29	0.60565
1252.9	0.771745
1254.5	1.33151
1256.11	1.02363
1257.72	1.19273
1259.32	1.01128
1260.93	1.09969
1262.54	0.360298
1264.14	0.863315
1265.75	1.13833
1267.35	1.0604
1268.96	1.1681
1270.56	0.673486
1272.16	1.40114
1273.77	1.04961
1275.37	1.15321
1276.97	1.17295
1278.57	1.19186
1280.18	1.50002
1281.78	1.04186
1283.38	1.55651
1284.98	1.3062
1286.58	0.974278
1288.18	1.34627
1289.78	1.03709
1291.38	1.01776
1292.99	1.90742
1294.58	1.72183
1296.18	1.948
1297.78	0.892459
1299.38	1.28052
1300.98	1.76964
1302.58	2.00951
1304.17	1.93928
1305.77	1.53949
1307.37	1.44805
1308.97	1.54112
1310.56	1.34712
1312.16	1.50194
1313.76	1.94353
1315.35	2.30364
1316.95	1.76584
1318.54	1.55587
1320.14	0.652949
1321.73	1.29861
1323.32	1.16829
1324.92	1.38206
1326.51	1.8578
1328.1	2.85882
1329.7	2.90633
1331.29	2.83427
1332.88	2.94673
1334.47	1.26468
1336.07	1.60424
1337.66	1.64145
1339.25	1.21431
1340.84	1.02776
1342.43	1.82541
1344.02	1.71487
1345.61	1.70387
1347.2	1.05149
1348.79	1.08327
1350.37	1.7178
1351.96	1.81406
1353.55	1.03269
1355.14	1.03262
1356.73	1.5724
1358.31	1.15259
1359.9	0.732119
1361.49	1.0295
1363.07	1.66486
1364.66	1.00336
1366.25	0.701517
1367.83	1.21725
1369.42	0.778261
1371	0.997659
1372.59	1.29792
1374.17	1.20131
1375.75	0.96608
1377.34	0.631421
1378.92	0.853425
1380.5	0.994826
1382.09	1.29403
1383.67	1.33325
1385.25	0.934168
1386.83	1.38929
1388.42	0.990296
1390	0.552626
1391.58	0.711409
1393.16	0.950208
1394.74	0.752926
1396.32	0.37709
1397.9	0.516176
1399.48	0.832553
1401.06	1.06851
1402.64	0.848408
1404.21	0.430711
1405.79	0.528049
1407.37	0.724939
1408.95	0.369281
1410.53	0.863656
1412.1	1.06149
1413.68	0.0545149
1415.26	1.00083
1416.83	0.860822
1418.41	0.622066
1419.98	0.836978
1421.56	0.796775
1423.13	0.758132
1424.71	1.21314
1426.28	0.901745
1427.86	0.905769
1429.43	0.870148
1431	1.38473
1432.58	1.05188
1434.15	0.698577
1435.72	1.48574
1437.29	1.84011
1438.87	2.01819
1440.44	1.68629
1442.01	1.21786
1443.58	2.32239
1445.15	1.71751
1446.72	1.56482
1448.29	1.76611
1449.86	1.61387
1451.43	1.89467
1453	1.70411
1454.57	1.29747
1456.14	1.59892
1457.71	1.46688
1459.27	1.51066
1460.84	1.33622
1462.41	1.4551
1463.98	1.70992
1465.54	0.941375
1467.11	1.52872
1468.67	0.820065
1470.24	1.11378
1471.81	0.525615
1473.37	1.01747
1474.94	1.35301
1476.5	1.12027
1478.07	1.00533
1479.63	0.576728
1481.19	0.912527
1482.76	0.581871
1484.32	0.133624
1485.88	0.605927
1487.45	0.607239
1489.01	0.313625
1490.57	0.409888
1492.13	0.934072
1493.69	0.673959
1495.26	0.120073
1496.82	0.560206
1498.38	0.532041
1499.94	0.523926
1501.5	0.0898075
1503.06	0.394608
1504.62	0.350904
1506.17	0.617228
1507.73	0.224944
1509.29	0.19953
1510.85	0.616868
1512.41	-0.104564
1513.97	0.195508
1515.52	1.01395
1517.08	0.199229
1518.64	0.403437
1520.19	0.626921
1521.75	0.792718
1523.31	0.250648
1524.86	0.339052
1526.42	0.636003
1527.97	0.341061
1529.52	0.940032
1531.08	0.360183
1532.63	0.104777
1534.19	0.627234
1535.74	0.373989
1537.29	0.462288
1538.85	0.324569
1540.4	0.847429
1541.95	0.239124
1543.5	0.591685
1545.06	1.07497
1546.61	0.899718
1548.16	1.19373
1549.71	0.887348
1551.26	1.01243
1552.81	1.25003
1554.36	1.1144
1555.91	0.588213
1557.46	1.27765
1559.01	1.35272
1560.56	1.33643
1562.11	0.780787
1563.65	1.68138
1565.2	0.978086
1566.75	1.84227
1568.29	1.13866
1569.84	1.89046
1571.39	1.78328
1572.94	1.63847
1574.48	1.41886
1576.03	1.8153
1577.57	1.7453
1579.12	2.3105
1580.66	1.62547
1582.21	1.63204
1583.75	1.62081
1585.3	1.59165
1586.84	1.82472
1588.38	1.70275
1589.93	1.67401
1591.47	1.51375
1593.01	1.25928
1594.55	1.54759
1596.1	1.29276
1597.64	1.6942
1599.18	1.12161
1600.72	1.82484
1602.26	1.9474
1603.8	1.33768
1605.34	1.45938
1606.88	1.39186
1608.42	1.5667
1609.96	1.30695
1611.5	1.21412
1613.04	1.45747
1614.58	1.1175
1616.12	0.815081
1617.65	0.813416
1619.19	0.887815
1620.73	0.757581
1622.27	1.20914
1623.8	1.1933
1625.34	1.68287
1626.87	1.19831
1628.41	1.16174
1629.95	1.31086
1631.48	1.38404
1633.02	1.43809
1634.55	1.15641
1636.09	1.1557
1637.62	1.88322
1639.15	1.56682
1640.69	1.41839
1642.22	1.39985
1643.76	1.60366
1645.29	1.60134
1646.82	1.28202
1648.35	1.70611
1649.88	1.62869
1651.42	2.18329
1652.95	1.68143
1654.48	1.73734
1656.01	1.71971
1657.54	1.27585
1659.07	1.53534
1660.6	1.36753
1662.13	2.14194
1663.66	1.28742
1665.19	1.65269
1666.72	1.22422
1668.24	1.31384
1669.77	0.980883
1671.3	1.40507
1672.83	0.964332
1674.35	1.42659
1675.88	1.00467
1677.41	0.766283
1678.93	0.821394
1680.46	1.04094
1681.99	0.85528
1683.51	0.926627
1685.04	1.25486
1686.56	0.666115
1688.09	0.719974
1689.61	0.0963678
1691.13	0.51724
1692.66	0.205765
1694.18	0.754208
1695.71	0.259897
1697.23	0.167849
1698.75	0.221685
1700.27	0.713048
1701.8	0.291422
1703.32	0.744602
1704.84	0.0129585
1706.36	-0.00832844
1707.88	-0.0298243
1709.4	0.348223
1710.92	0.308328
1712.44	0.178007
1713.96	0.0118217
1715.48	0.443333
1717	0.349545
1718.52	0.273864
1720.04	0.126018
1721.56	0.303344
1723.07	0.102334
1724.59	-0.00739193
1726.11	0.478427
1727.63	0.0650711
1729.14	0.570607
1730.66	0.159931
1732.18	0.146152
1733.69	0.655402
1735.21	-0.483619
1736.72	-0.0662289
1738.24	-0.0757599
1739.75	0.555472
1741.27	-0.291357
1742.78	0.0894585
1744.3	-0.547008
1745.81	0.0312128
1747.32	0.263757
1748.84	-0.211542
1750.35	0.0922375
1751.86	-0.0732212
1753.37	-0.259797
1754.89	-0.101838
1756.4	-0.223332
1757.91	0.165086
1759.42	0.325115
1760.93	-0.00467491
1762.44	0.151194
1763.95	-0.145788
1765.46	0.249151
1766.97	-0.01968
1768.48	0.233925
1769.99	-0.0089941
1771.5	0.537681
1773.01	-0.0540123
1774.52	0.0717688
1776.03	-0.0991831
1777.53	-0.370859
1779.04	0.136885
1780.55	-0.031601
1782.06	0.172771
1783.56	-0.134505
1785.07	0.0722466
1786.57	0.323542
1788.08	-0.0430002
1789.59	0.348038
1791.09	0.0191879
1792.6	0.0365572
1794.1	-0.0608311
1795.6	0.205941
1797.11	-0.0970688
1798.61	0.189095
1800.12	-0.049674
1801.62	-0.0132847
1803.12	0.080595
1804.63	0.385703
1806.13	0.224754
1807.63	0.0234003
1809.13	0.13493
1810.63	-0.0707874
1812.14	0.245506
1813.64	-0.14786
1815.14	-0.243736
1816.64	-0.0792398
1818.14	0.0391188
1819.64	0.184268
1821.14	0.327804
1822.64	0.00257587
1824.14	0.0964661
1825.63	0.141418
1827.13	0.282857
1828.63	0.196249
1830.13	0.331481
1831.63	-0.0295076
1833.12	0.0920019
1834.62	0.145647
1836.12	0.303022
1837.62	0.172498
1839.11	0.0584564
1840.61	0.383535
1842.1	0.0493107
1843.6	0.147867
1845.09	0.0510798
1846.59	0.39709
1848.08	-0.126937
1849.58	0.150973
1851.07	0.0427656
1852.57	0.217544
1854.06	-0.197919
1855.55	0.294542
1857.04	0.0880795
1858.54	0.251195
1860.03	0.32229
1861.52	0.134338
1863.01	-0.0140553
1864.5	-0.202898
1866	0.373286
1867.49	-0.0750408
1868.98	-0.0665207
1870.47	0.177878
1871.96	0.316717
1873.45	0.359831
1874.94	0.0926037
1876.43	-0.00738335
1877.92	0.182853
1879.41	0.0831614
1880.89	0.039011
1882.38	0.0985966
1882.48	0.101664
1883.97	0.137376
1885.47	-0.0716181
1886.96	0.136802
1888.46	0.170444
1889.95	0.1868
1891.44	0.134464
1892.94	0.0836191
1894.43	0.260465
1895.92	0.369224
1897.41	0.322304
1898.9	-0.176988
1900.4	0.314322
1901.89	0.17789
1903.38	0.144217
1904.87	0.143991
1906.36	0.368887
1907.85	0.350382
1909.34	0.0894413
1910.83	0.3848
1912.32	0.195117
1913.81	-0.098011
1915.29	0.181297
1916.78	0.130797
1918.27	-0.16282
1919.76	0.426988
1921.25	0.254187
1922.74	0.34159
1924.22	-0.00305843
1925.71	0.363162
1927.2	0.0378876
1928.68	0.336469
1930.17	-0.0229187
1931.65	0.413527
1933.14	0.259875
1934.63	0.295062
1936.11	0.415165
1937.59	0.049859
1939.08	0.462127
1940.56	0.356075
1942.05	0.078352
1943.53	0.129608
1945.01	0.388548
1946.5	0.492531
1947.98	0.389443
1949.46	0.130704
1950.94	0.301742
1952.43	0.316854
1953.91	0.382987
1955.39	0.431746
1956.87	0.274718
1958.35	0.118501
1959.83	0.254739
1961.31	0.288473
1962.79	0.30523
1964.27	-0.397778
1965.75	0.183786
1967.23	0.456048
1968.71	0.231324
1970.19	0.211458
1971.67	0.174294
1973.14	0.393136
1974.62	0.304737
1976.1	0.335927
1977.58	0.145808
1979.05	-0.112059
1980.53	0.259767
1982.01	0.00197983
1983.48	0.0500469
1984.96	0.301419
1986.43	0.297762
1987.91	0.395767
1989.38	0.138269
1990.86	0.186344
1992.33	0.066062
1993.81	0.437058
1995.28	0.352227
1996.76	-0.0531192
1998.23	0.284861
1999.7	0.639099
2001.18	-0.0200262
2002.65	0.467945
2004.12	0.196665
2005.59	0.0438833
2007.06	0.093996
2008.54	0.178585
2010.01	0.230238
2011.48	0.198188
2012.95	0.250356
2014.42	0.41993
2015.89	0.134464
2017.36	0.403358
2018.83	0.284613
2020.3	0.266279
2021.77	0.600476
2023.24	0.162498
2024.71	0.228955
2026.17	0.212545
2027.64	0.566407
2029.11	0.25072
2030.58	0.0871477
2032.04	0.142506
2033.51	0.0976191
2034.98	0.539689
2036.45	0.124977
2037.91	0.264039
2039.38	0.654899
2040.84	-0.214917
2042.31	0.613421
2043.77	0.652381
2045.24	0.170574
2046.7	0.244563
2048.17	0.116766
2049.63	-0.0957112
2051.1	0.365165
2052.56	0.352728
2054.02	0.186852
2055.48	0.407259
2056.95	0.339709
2058.41	0.322004
2059.87	0.371514
2061.33	0.471843
2062.8	0.505507
2064.26	0.506412
2065.72	0.491407
2067.18	0.763274
2068.64	0.463489
2070.1	0.500584
2071.56	0.621917
2073.02	0.473743
2074.48	0.39264
2075.94	0.277534
2077.4	0.414685
2078.86	0.433583
2080.31	0.569924
2081.77	0.806733
2083.23	0.319008
2084.69	0.285202
2086.14	0.536716
2087.6	0.770623
2089.06	0.566947
2090.52	0.346469
2091.97	0.562647
2093.43	0.426132
2094.88	0.809409
2096.34	0.605162
2097.79	0.819272
2099.25	0.630794
2100.7	0.860359
2102.16	0.822384
2103.61	0.751822
2105.07	0.415493
2106.52	0.431072
2107.97	0.647743
2109.43	0.314362
2110.88	0.847536
2112.33	0.745896
2113.78	0.293063
2115.24	0.505006
2116.69	0.682493
2118.14	0.79348
2119.59	0.805901
2121.04	1.01916
2122.49	1.03506
2123.94	0.720705
2125.39	1.00396
2126.84	1.36983
2128.29	1.15445
2129.74	0.772145
2131.19	0.96863
2132.64	0.965496
2134.09	1.16081
2135.54	0.860586
2136.98	0.942109
2138.43	0.876552
2139.88	0.86232
2141.33	0.998363
2142.77	1.28442
2144.22	1.4886
2145.67	1.27934
2147.11	1.73189
2148.56	1.65414
2150.01	1.50921
2151.45	1.44609
2152.9	1.44825
2154.34	1.31705
2155.79	1.583
2157.23	1.91521
2158.67	1.40326
2160.12	1.3398
2161.56	1.54309
2163	1.31726
2164.45	1.27511
2165.89	1.28351
2167.33	1.59092
2168.78	1.79799
2170.22	1.3715
2171.66	1.7246
2173.1	1.62667
2174.54	2.02638
2175.98	1.37762
2177.42	2.02618
2178.86	1.6944
2180.3	1.52984
2181.74	1.49913
2183.18	1.6519
2184.62	1.60539
2186.06	1.20958
2187.5	1.57903
2188.94	1.81551
2190.38	1.303
2191.82	1.08972
2193.25	1.42515
2194.69	1.74268
2196.13	1.57562
2197.57	1.77275
2199	1.25294
2200.44	1.39743
2201.88	1.67432
2203.31	0.989154
2204.75	1.28414
2206.18	1.54664
2207.62	1.36214
2209.05	1.24386
2210.49	1.12497
2211.92	1.05487
2213.36	1.05026
2214.79	0.71515
2216.22	1.78407
2217.66	0.8566
2219.09	1.2834
2220.52	1.01831
2221.96	0.802956
2223.39	0.982515
2224.82	0.452569
2226.25	0.909062
2227.68	1.14954
2229.11	1.32262
2230.55	0.690657
2231.98	0.928393
2233.41	1.21493
2234.84	0.618547
2236.27	0.775856
2237.7	0.297652
2239.12	1.06174
2240.55	0.571081
2241.98	0.604158
2243.41	0.475256
2244.84	0.672902
2246.27	0.967851
2247.7	0.788334
2249.12	0.395017
2250.55	0.928737
2251.98	0.7926
2253.41	0.867291
2254.83	0.600875
2256.26	0.254993
2257.68	0.966288
2259.11	0.690117
2260.54	0.660014
2261.96	0.761979
2263.39	0.833047
2264.81	0.433246
2266.24	0.683064
2267.66	0.509447
2269.08	0.709148
2270.51	0.30591
2271.93	0.699848
2273.35	0.70291
2274.78	0.722322
2276.2	0.448634
2277.62	0.647595
2279.04	0.683694
2280.47	0.0674839
2281.89	0.46211
2283.31	0.595799
2284.73	0.550069
2286.15	0.471853
2287.57	0.557185
2288.99	0.561291
2290.41	0.565764
2291.83	0.341629
2293.25	0.313651
2294.67	0.792827
2296.09	0.241122
2297.51	0.360276
2298.93	0.201062
2300.35	0.582715
2301.76	0.522236
2303.18	0.412736
2304.6	0.647957
2306.02	0.259278
2307.44	0.264249
2308.85	0.465993
2310.27	0.23982
2311.69	0.177618
2313.1	0.477309
2314.52	0.00393724
2315.93	0.354133
2317.35	0.408793
2318.76	0.463916
2320.18	0.469425
2321.59	0.143955
2323.01	0.493318
2324.42	0.296034
2325.83	0.624753
2327.25	0.852697
2328.66	0.403929
2330.07	0.647602
2331.49	0.496686
2332.9	0.495009
2334.31	0.444749
2335.72	0.70731
2337.13	0.508842
2338.55	-0.0356283
2339.96	0.175265
2341.37	0.155168
2342.78	0.413615
2344.19	-0.0827317
2345.6	0.306812
2347.01	0.0573182
2348.42	0.397453
2349.83	0.311489
2351.24	0.58458
2352.65	0.252015
2354.05	0.22922
2355.46	0.156942
2356.87	0.198477
2358.28	0.28868
2359.69	0.167551
2361.09	0.322679
2362.5	0.136975
2363.91	0.194514
2365.31	0.0415363
2366.72	0.438529
2368.13	0.205552
2369.53	-0.106752
2370.94	0.0822577
2372.34	0.304397
2373.75	-0.165224
2375.15	0.0580482
2376.56	0.988743
2377.96	0.0360951
2379.37	-0.0168252
2380.77	0.12154
2382.17	0.146123
2383.58	0.410065
2384.98	0.305203
2386.38	0.312775
2387.79	0.257268
2389.19	0.202927
2390.59	0.0701246
2391.99	0.272874
2393.39	0.062573
2394.8	0.250815
2396.2	-0.164601
2397.6	0.135996
2399	0.262147
2400.4	0.341025
2401.8	0.118373
2403.2	0.419909
2404.6	0.466963
2406	0.402106
2407.4	0.14603
2408.79	0.17495
2410.19	-0.240313
2411.59	0.707537
2412.99	0.182448
2414.39	0.165464
2415.78	0.149781
2417.18	0.325251
2418.58	0.0740738
2419.98	0.266584
2421.37	-0.0478134
2422.77	-0.204193
2424.16	0.352148
2425.56	-0.0579638
2426.96	0.419777
2428.35	0.422908
2429.74	0.411046
2431.14	0.0983491
2432.53	-0.0398793
2433.93	0.25014
2435.32	0.0469131
2436.72	0.239525
2438.11	-0.0299563
2439.5	0.382546
2440.9	0.0952759
2442.29	0.156941
2443.68	0.18656
2445.07	0.374609
2446.47	-0.0718317
2447.86	0.163444
2449.25	0.240083
2450.64	0.142683
2452.03	0.0774741
2453.42	-0.287663
2454.81	-0.0507441
2456.2	0.534729
2457.59	-0.160828
2458.98	0.187491
2460.37	0.124061
2461.76	0.0915699
2463.15	0.279674
2464.54	-0.133264
2465.93	0.33825
2467.32	0.114698
2468.7	-0.187595
2470.09	-0.253212
2471.48	-0.287617
2472.87	0.165806
2474.25	-0.106185
2475.64	-0.346886
2477.03	-0.304608
2478.41	0.287213
2479.8	0.109302
2481.18	-0.146578
2482.57	-0.135757
2483.95	-0.125341
2485.34	0.353514
2486.72	0.267941
2488.11	0.0255213
2489.49	0.203823
2490.88	0.0857768
2492.26	0.0928378
2493.65	0.0852833
2495.03	0.249569
2496.41	0.0891891
2497.79	0.0692272
2499.18	0.266252
2500.56	-0.094111
2501.94	0.56545
2503.32	-0.33657
2504.7	-0.0190034
2506.09	0.482245
2507.47	-0.0182776
2508.85	0.0666289
2510.23	-0.109362
2511.61	-0.100334
2512.99	0.491849
2514.37	-0.172132
2515.75	-0.145607
2517.13	0.0957165
2518.51	-0.0449638
2519.89	0.395353
2521.26	0.300429
2522.64	-0.130759
2524.02	-0.0587487
2525.4	0.210655
2526.78	-0.0383768
2528.15	0.124161
2529.53	0.241805
2530.91	0.603921
2532.28	0.19243
2533.66	-0.0201521
2535.04	0.0262251
2536.41	0.285284
2537.79	0.0272484
2539.16	-0.0948415
2540.54	0.0708928
2541.91	-0.203959
2543.29	0.158844
2544.66	0.0974627
2546.04	0.0826921
2547.41	-0.00683069
2548.78	-0.00458479
2550.16	-0.123623
2551.53	0.181844
2552.9	0.0312638
2554.27	-0.226431
2555.65	0.000685215
2557.02	-0.0154791
2558.39	0.135044
2559.76	0.0886464
2561.13	0.194314
2562.51	-0.184417
2563.88	0.240586
2565.25	0.226512
2566.62	0.0459776
2567.99	-0.119323
2569.36	-0.102749
2570.73	0.00477505
2572.1	0.00625324
2573.47	-0.340834
2574.84	0.403623
2576.2	0.0869722
2577.57	0.240247
2578.94	-0.213166
2580.31	-0.272649
2581.68	-0.196002
2583.05	0.0622649
2584.41	-0.0132375
2585.78	0.138609
2587.15	0.184441
2588.51	-0.148443
2589.88	0.0492444
2591.24	0.140743
2592.61	0.0954638
2593.98	0.110101
2595.34	0.3207
2596.71	0.015553
2598.07	0.0428362
2599.44	0.0395131
2600.8	-0.0543799
2602.16	0.0486031
2603.53	-0.0139632
2604.89	-0.106142
2606.26	-0.243312
2607.62	-0.275076
2608.98	0.49129
2610.34	0.00554132
2611.71	-0.0291643
2613.07	0.0103488
2614.43	0.214346
2615.79	0.0275297
2617.15	-0.0687547
2618.52	-0.0145612
2619.88	0.159949
2621.24	0.0358043
2622.6	-0.0129628
2623.96	0.0580187
2625.32	-0.0203419
2626.68	0.244181
2628.04	0.28452
2629.4	0.294751
2630.75	0.423812
2632.11	0.15118
2633.47	-0.0764761
2634.83	-0.0217724
2636.19	0.106983
2637.55	-0.342386
2638.9	0.0381861
2640.26	0.181588
2641.62	0.0736837
2642.98	0.320766
2644.33	-0.111423
2645.69	0.12082
2647.04	-0.104603
2648.4	0.052721
2649.76	-0.158841
2651.11	0.0116558
2652.47	0.0934129
2653.82	0.0578275
2655.18	0.316129
2656.53	0.106324
2657.88	-0.394864
2659.24	0.129338
2660.59	0.0685315
2661.95	-0.0361552
2663.3	-0.082798
2664.65	0.191051
2666	0.0846176
2667.36	0.356845
2668.71	0.0606394
2670.06	0.332619
2671.41	0.284809
2672.76	0.0923581
2674.12	-0.259032
2675.47	0.421014
2676.82	-0.161275
2678.17	0.12768
2679.52	0.0982189
2680.87	0.0697074
2682.22	0.303245
2683.57	0.189906
2684.92	0.353004
2686.27	0.226471
2687.62	-0.0163503
2688.97	0.204259
2690.31	0.0459723
2691.66	0.263492
2693.01	0.0877752
2694.36	0.0998635
2695.71	0.387129
2697.05	0.0228038
2698.4	0.181223
2699.75	0.0659785
2701.09	0.270877
2702.44	-0.362883
2703.78	-0.155714
2705.13	-0.121854
2706.48	-0.0733919
2707.82	-0.0105762
2709.17	-0.238374
2710.51	0.302998
2711.86	0.263452
2713.2	0.0348611
2714.54	0.00958204
2715.89	0.245971
2717.23	0.307862
2718.57	0.398669
2719.92	-0.092833
2721.26	0.113663
2722.6	0.130593
2723.95	-0.0421028
2725.29	0.541721
2726.63	-0.0101066
2727.97	-0.0818524
2729.31	0.370104
2730.65	0.00701046
2732	0.0950003
2733.34	0.25579
2734.68	0.0239902
2736.02	0.417838
2737.36	0.0264168
2738.7	-0.0595589
2740.04	-0.0584588
2741.38	0.0585752
2742.72	0.102339
2744.05	0.261744
2745.39	-0.0589175
2746.73	0.114048
2748.07	-0.511639
2749.41	0.169085
2750.75	0.0227451
2752.08	0.210207
2753.42	0.0789185
2754.76	0.150721
2756.09	0.266066
2757.43	-0.0673676
2758.77	0.106271
2760.1	0.207821
2761.44	0.0493035
2762.78	0.296415
2764.11	0.153136
2765.44	-0.0769238
2766.78	-0.017972
2768.11	0.503043
2769.45	0.25627
2770.78	-0.121637
2772.12	0.149612
2773.45	-0.0422049
2774.78	-0.0467534
2776.12	0.294367
2777.45	-0.156316
2778.78	0.314578
2780.12	-0.148817
2781.45	-0.036839
2782.78	-0.0397286
2784.11	0.0434041
2785.44	0.0117588
2786.78	0.152197
2788.11	0.0352497
2789.44	0.162352
2790.77	0.175737
2792.1	-0.0389395
2793.43	-0.0958414
2794.76	-0.295576
2796.09	-0.00967169
2797.42	0.247041
2798.75	0.0176177
2800.08	-0.112077
2801.4	0.243145
2802.73	0.483795
2804.06	-0.31633
2805.39	0.194395
2806.72	0.106168
2808.05	-0.195833
2809.37	-0.142435
2810.7	-0.0890985
2812.03	0.149155
2813.35	-0.065753
2814.68	-0.222495
2816.01	0.0756745
2817.33	0.119635
2818.66	0.0507417
2819.98	-0.34411
2821.31	0.0118704
2822.63	-0.0437369
2823.96	0.325184
2825.28	-0.354555
2826.61	0.31138
2827.93	0.000557423
2829.25	-0.0973315
2830.58	0.0883198
2831.9	0.217532
2833.23	0.375009
2834.55	0.305736
2835.87	0.448338
2837.19	0.208397
2838.52	0.434999
2839.84	0.166335
2841.16	0.463426
2842.48	0.647655
2843.8	0.874788
2845.12	0.834017
2846.44	1.09059
2847.77	1.17792
2849.08	1.16635
2850.4	0.87185
2851.73	1.28362
2853.05	1.08719
2854.36	0.848062
2855.68	1.62611
2857	1.38679
2858.32	1.85382
2859.64	1.40274
2860.96	1.71415
2862.28	1.84163
2863.59	1.68643
2864.91	1.47464
2866.23	1.88361
2867.55	2.19388
2868.86	2.3634
2870.18	2.01164
2871.5	1.99844
2872.81	2.76015
2874.13	2.19639
2875.44	2.81518
2876.76	2.88336
2878.07	3.02105
2879.39	3.14423
2880.7	2.48041
2882.02	3.16674
2883.33	2.80017
2884.65	2.89809
2885.96	3.08075
2887.28	2.94062
2888.59	2.26694
2889.9	3.06582
2891.21	2.8117
2892.53	2.55722
2893.84	2.70906
2895.15	2.56702
2896.46	2.70574
2897.78	2.78933
2899.09	3.04169
2900.4	3.28073
2901.71	3.26836
2903.02	3.38208
2904.33	3.45395
2905.64	3.2603
2906.95	3.65461
2908.26	3.54611
2909.57	3.59226
2910.88	3.97482
2912.19	4.17556
2913.5	3.98367
2914.81	4.30845
2916.12	4.70157
2917.43	4.67311
2918.73	5.17532
2920.04	5.21544
2921.35	4.7668
2922.66	5.13033
2923.96	5.27146
2925.27	4.70082
2926.58	5.20711
2927.88	5.35002
2929.19	5.70226
2930.5	5.87219
2931.8	5.3706
2933.11	5.79134
2934.41	5.44323
2935.72	5.36081
2937.02	5.75367
2938.33	5.61563
2939.63	5.33812
2940.94	5.06108
2942.24	5.1761
2943.54	5.06864
2944.85	4.38924
2946.15	4.6335
2947.45	4.80857
2948.76	4.31171
2950.06	4.54148
2951.36	3.73344
2952.66	4.26782
2953.97	4.19872
2955.27	4.10121
2956.57	4.29841
2957.87	4.3575
2959.17	3.59309
2960.47	4.14735
2961.77	4.10146
2963.07	3.73359
2964.37	3.61738
2965.67	3.9211
2966.97	4.12514
2968.27	3.47041
2969.57	3.46137
2970.87	3.43809
2972.17	3.26027
2973.47	3.47668
2974.77	2.76413
2976.07	2.99397
2977.36	2.80025
2978.66	3.15403
2979.96	2.42211
2981.26	2.84321
2982.55	2.78516
2983.85	2.78362
2985.15	2.34735
2986.44	2.33419
2987.74	2.35044
2989.03	2.05843
2990.33	1.83686
2991.63	1.90995
2992.92	1.68692
2994.21	1.88428
2995.51	1.50454
2996.8	1.65788
2998.1	0.996874
2999.39	1.79541
3000.69	1.3458
3001.98	1.10724
3003.27	0.869137
3004.57	1.28962
3005.86	1.14939
3007.15	1.20464
3008.44	1.17505
3009.74	0.906901
3011.03	0.708232
3012.32	0.704863
3013.61	0.771161
3014.9	0.670364
3016.19	0.625969
3017.48	0.373385
3018.78	0.580661
3020.07	0.412225
3021.36	0.54932
3022.65	0.51875
3023.94	0.47341
3025.23	0.510572
3026.51	0.228805
3027.8	0.736607
3029.09	0.636091
3030.38	0.467897
3031.67	0.618768
3032.96	0.314827
3034.24	0.370138
3035.53	0.79735
3036.82	0.726534
3038.11	0.64031
3039.39	0.112061
3040.68	0.408254
3041.97	0.277247
3043.25	0.310907
3044.54	0.50935
3045.83	0.448891
3047.11	0.144487
3048.4	0.579705
3049.68	0.620572
3050.97	0.362578
3052.25	0.746625
3053.54	0.421065
3054.82	0.572402
3056.11	0.38168
3057.39	0.558097
3058.67	0.733494
3059.96	0.676835
3061.24	0.361903
3062.52	0.700899
3063.81	0.60568
3065.09	0.471023
3066.37	0.66383
3067.65	0.599155
3068.94	0.629941
3070.22	0.0891705
3071.5	0.322757
3072.78	0.459939
3074.06	0.41908
3075.34	0.309342
3076.62	0.430144
3077.9	0.0895472
3079.18	0.170659
3080.46	0.280039
3081.74	0.0244203
3083.02	0.0953541
3084.3	0.139678
3085.58	0.143263
3086.86	0.0106177
3088.14	-0.0549035
3089.42	0.0552969
3090.69	-0.0114698
3091.97	-0.0513372
3093.25	0.20721
3094.53	-0.117336
3095.8	0.0464602
3097.08	-0.291428
3098.36	0.251605
3099.63	0.0759826
3100.91	0.0492425
3102.19	0.184934
3103.46	-0.166741
3104.74	0.145289
3106.01	-0.124226
3107.29	0.0264735
3108.56	0.0967393
3109.84	-0.251785
3111.11	-0.152954
3112.39	-0.22961
3113.66	-0.102831
3114.94	0.281488
3116.21	0.0959768
3117.48	0.262107
3118.76	-0.101833
3120.03	-0.168493
3121.3	-0.0462813
3122.57	-0.101024
3123.85	0.0471258
3125.12	-0.0756721
3126.39	-0.0763402
3127.66	0.0450807
3128.93	-0.333706
3130.21	0.410124
3131.48	0.261331
3132.75	-0.103869
3134.02	0.27358
3135.29	-0.0654669
3136.56	-0.445287
3137.83	-0.124163
3139.1	0.357606
3140.37	0.165235
3141.64	0.120963
3142.91	-0.111293
3144.17	-0.208685
3145.44	0.0834508
3146.71	0.053822
3147.98	0.0782194
3149.25	0.183252
