200.43	1.13433
202.244	1.18699
204.059	1.24096
205.873	0.396013
207.688	0.135374
209.501	-0.612169
211.314	0.679382
213.127	-0.192996
214.941	0.389323
216.753	1.01803
218.564	0.386118
220.375	0.312243
222.186	0.457063
223.999	1.15875
225.809	0.0235643
227.618	-0.579463
229.428	0.700607
231.236	-0.121329
233.045	0.190555
234.855	0.0200596
236.663	-0.100854
238.471	0.310905
240.278	0.0748367
242.085	0.395906
243.891	-0.173848
245.698	-0.623855
247.503	-0.110757
249.309	-0.0358334
251.116	0.348619
252.921	0.415059
254.725	0.285784
256.529	-0.133577
258.333	0.315763
260.136	0.501635
261.939	-0.346127
263.742	-0.0115776
265.544	-0.711948
267.346	0.298678
269.148	0.103768
270.949	0.703054
272.75	-0.0254574
274.55	-0.490867
276.351	0.343219
278.15	0.571756
279.95	0.00236034
281.749	0.610126
283.548	0.372523
285.346	-0.203155
287.144	0.109105
288.942	0.923983
290.739	0.420545
292.536	0.230612
294.333	-0.0290174
296.129	0.239287
297.925	-0.0650444
299.721	0.586947
301.514	0.0438232
303.309	-0.189785
305.104	-0.0192575
306.898	-0.279643
308.692	0.198703
310.486	-0.204549
312.279	-0.177496
314.072	0.39904
315.862	0.0727634
317.654	0.486821
319.446	0.402597
321.238	0.152781
323.029	0.785858
324.819	0.0360756
326.608	0.0970745
328.398	0.754995
330.188	0.647663
331.977	0.0362167
333.766	0.0440121
335.553	0.144652
337.341	0.2662
339.129	-0.0936041
340.917	0.525163
342.704	0.592385
344.489	-0.320375
346.275	0.678817
348.062	0.579708
349.845	0.170788
351.631	0.287046
353.416	0.354684
355.201	0.0391321
356.984	0.413474
358.768	-0.0484467
360.552	0.822202
362.333	0.809769
364.116	-0.0597658
365.899	0.449017
367.68	0.243682
369.462	-0.199597
371.243	0.0437393
373.023	0.451135
374.804	-0.0883064
376.585	0.12879
378.363	-0.102118
380.143	0.116014
381.923	-0.323983
383.7	0.249511
385.479	0.165568
387.256	0.0361061
389.034	0.0489607
390.812	0.156851
392.588	0.758772
394.365	0.0227528
396.14	-0.0553741
397.916	-0.697146
399.691	-0.470295
401.467	0.178753
403.24	0.216221
405.015	-0.0996218
406.788	0.123668
408.563	0.557339
410.335	0.919871
412.109	0.179196
413.88	0.307373
415.654	0.530169
417.424	-0.208163
419.197	0.110103
420.967	-0.111157
422.739	0.160108
424.508	-0.672896
426.279	0.159701
428.048	0.779846
429.819	0.554166
431.587	0.563094
433.356	0.314176
435.124	0.534995
436.891	-0.722877
438.66	0.177563
440.426	0.0904398
442.194	-0.21026
443.96	0.658784
445.725	0.493504
447.492	0.326852
449.257	0.300117
451.021	-0.240541
452.787	0.22383
454.551	0.0345554
456.314	0.404861
458.079	-0.343516
459.842	0.0262499
461.604	0.140409
463.368	0.116792
465.13	0.374877
466.891	0.938491
468.654	0.80853
470.415	-0.412137
472.175	0.0652027
473.935	0.123078
475.696	0.13223
477.456	0.674438
479.215	0.398969
480.973	0.681209
482.733	0.614149
484.491	0.664961
486.249	0.974463
488.006	0.611034
489.765	0.2731
491.522	0.659557
493.278	0.253113
495.034	0.0800047
496.789	0.351192
498.544	0.575624
500.301	0.119792
502.056	0.812382
503.81	0.565372
505.564	0.222519
507.317	0.74762
509.071	-0.304951
510.825	0.851711
512.578	0.947712
514.33	0.382896
516.082	0.969201
517.833	0.0484886
519.585	0.843224
521.335	0.296958
523.086	0.830849
524.836	0.471954
526.586	0.46526
528.335	0.857166
530.085	0.147083
531.835	0.936217
533.584	-0.149191
535.332	0.589859
537.08	0.437881
538.827	-0.345956
540.574	0.712736
542.321	0.743044
544.068	0.191135
545.814	0.476986
547.56	0.483845
549.305	0.630061
551.05	0.289931
552.795	0.737206
554.54	0.744728
556.282	-0.124571
558.025	-0.230723
559.769	-0.151793
561.512	0.687297
563.255	0.858703
564.997	0.524927
566.739	0.582911
568.481	0.504083
570.223	-0.0323038
571.964	1.0622
573.705	-0.0437117
575.443	0.0225439
577.183	0.274435
578.923	-0.0916615
580.663	0.0711079
582.402	0.165247
584.141	0.511715
585.879	0.213228
587.615	0.649123
589.353	-0.0207224
591.09	0.251483
592.828	0.500006
594.564	0.541237
596.299	-0.314754
598.035	0.577731
599.771	0.158393
601.506	-0.077877
603.242	0.0293713
604.974	-0.462944
606.709	0.054615
608.443	0.432798
610.177	-0.428998
611.908	-0.0506201
613.642	0.167827
615.374	0.753635
617.105	0.881056
618.837	0.0916586
620.569	0.148585
622.3	0.615671
624.03	-0.130545
625.761	0.540533
627.491	-0.249073
629.219	-0.145541
630.949	-0.472786
632.677	-0.0217161
634.406	0.430796
636.135	0.152635
637.861	0.374557
639.59	0.866899
641.318	0.87598
643.043	0.699524
644.77	0.31677
646.495	0.299027
648.222	0.760945
649.948	-0.0460768
651.672	0.106218
653.398	0.240632
655.121	0.151892
656.846	0.612342
658.569	0.231625
660.293	-0.469799
662.015	0.447096
663.738	0.951182
665.46	0.766776
667.183	0.831294
668.903	1.28362
670.626	0.684682
672.346	0.614203
674.067	0.134546
675.787	0.390262
677.508	0.739855
679.226	0.768846
680.947	0.35989
682.665	1.02934
684.385	0.453837
686.102	0.404922
687.821	0.40005
689.538	0.647197
691.254	1.3311
692.972	-0.0589437
694.688	0.369844
696.406	1.32691
698.121	1.17693
699.835	0.565193
701.552	0.50452
703.266	0.764499
704.98	0.816507
706.695	0.56939
708.409	0.987164
710.121	0.533063
711.836	0.399752
713.548	0.495028
715.26	0.247087
716.973	0.547462
718.685	0.984297
720.396	1.21546
722.108	0.831558
723.818	1.29025
725.528	0.929624
727.238	1.04623
728.949	0.912436
730.658	0.755674
732.367	1.70848
734.075	1.09797
735.785	1.61883
737.493	1.10047
739.2	1.1705
740.907	1.71503
742.614	0.796149
744.322	1.29845
746.028	1.46456
747.734	1.65488
749.439	2.18428
751.144	1.63574
752.849	2.1911
754.555	1.7136
756.26	2.003
757.963	1.01133
759.667	1.5299
761.37	1.0361
763.073	1.58017
764.775	1.35704
766.477	1.8778
768.179	1.60557
769.883	1.1268
771.584	0.848817
773.285	1.65446
774.986	2.27849
776.686	2.08918
778.386	2.78342
780.085	2.37178
781.785	1.87097
783.484	2.13955
785.182	2.06729
786.881	1.60713
788.579	1.75411
790.276	1.67052
791.974	1.94514
793.671	1.42682
795.367	2.30768
797.064	1.88088
798.76	1.74969
800.456	1.89112
802.151	1.65181
803.846	1.79593
805.541	1.80488
807.234	1.40835
808.928	1.61707
810.622	1.55472
812.315	2.1864
814.008	1.89767
815.701	1.96727
817.394	2.39457
819.086	2.17312
820.778	2.59984
822.468	1.86612
824.159	2.22706
825.85	2.12142
827.541	3.02102
829.231	1.78599
830.921	2.2922
832.609	2.4014
834.298	2.20152
835.987	1.73514
837.676	2.04913
839.364	1.84839
841.051	2.33788
842.738	1.86514
844.426	2.46414
846.113	2.21491
847.798	2.14673
849.484	1.5
851.171	1.95275
852.857	2.38648
854.54	1.94731
856.226	2.13598
857.911	1.91887
859.593	2.03672
861.278	2.12982
862.961	1.86038
864.645	1.81435
866.327	1.65435
868.01	1.38066
869.692	1.06116
871.373	1.03438
873.055	0.691488
874.735	0.438658
876.416	1.17871
878.097	2.03184
879.776	1.91443
881.457	1.05154
883.135	0.526289
884.815	1.2413
886.495	1.45781
888.172	1.26608
889.851	1.90682
891.528	0.53909
893.206	1.35601
894.882	0.707559
896.56	0.868176
898.237	1.13949
899.912	1.83523
901.589	1.52003
903.263	1.74191
904.94	1.20309
906.614	1.58107
908.289	0.933379
909.962	1.11228
911.635	0.958243
913.31	1.0943
914.982	1.71908
916.656	1.49977
918.328	1.72406
920.001	1.74876
921.672	0.822925
923.345	1.04946
925.015	0.990579
926.685	0.889951
928.357	1.58613
930.026	0.981646
931.698	1.1505
933.366	1.42997
935.035	1.092
936.705	0.622306
938.373	1.71961
940.041	1.49523
941.71	0.831186
943.377	1.49176
945.044	1.82143
946.712	1.06808
948.378	1.08489
950.044	1.09922
951.709	0.781007
953.376	0.507124
955.041	1.05116
956.706	1.2458
958.372	1.29035
960.036	1.22827
961.699	1.27863
963.362	1.13002
965.027	1.37719
966.69	0.315732
968.352	1.55148
970.014	0.793232
971.676	0.963051
973.339	0.912193
975	1.37181
976.661	1.03768
978.322	0.904505
979.982	1.00449
981.642	1.10407
983.303	1.30157
984.962	0.699592
986.621	1.31239
988.28	2.03303
989.938	1.46872
991.596	1.10301
993.254	0.825823
994.911	0.593218
996.57	1.00081
998.227	1.38587
999.884	1.68202
1001.54	3.21049
1003.2	2.99775
1004.85	2.25702
1006.51	1.31939
1008.16	1.08597
1009.82	1.11662
1011.47	1.34517
1013.12	0.785066
1014.78	0.773732
1016.43	1.00373
1018.08	0.402715
1019.74	0.656235
1021.39	0.4299
1023.04	0.94828
1024.69	0.156458
1026.34	1.44154
1028	1.04397
1029.65	1.30107
1031.3	0.661
1032.95	0.958041
1034.6	1.09988
1036.25	0.978057
1037.9	1.07315
1039.54	0.689073
1041.19	0.828444
1042.84	0.9041
1044.49	1.24269
1046.14	0.888573
1047.78	1.12349
1049.43	0.49187
1051.08	1.29535
1052.72	0.166706
1054.37	1.18931
1056.02	0.364943
1057.66	0.235521
1059.31	0.45333
1060.95	0.64863
1062.6	0.864695
1064.24	0.579444
1065.88	0.162484
1067.53	0.483277
1069.17	0.172564
1070.81	0.100144
1072.45	0.548575
1074.1	0.823642
1075.74	0.318978
1077.38	1.16084
1079.02	0.984967
1080.66	0.41983
1082.3	0.245045
1083.94	1.06657
1085.58	0.823515
1087.22	0.556282
1088.86	0.806333
1090.5	0.469513
1092.14	0.780203
1093.78	-0.249299
1095.42	1.31238
1097.05	0.673583
1098.69	0.576091
1100.33	1.25599
1101.96	0.474569
1103.6	0.771626
1105.24	0.295982
1106.87	0.875083
1108.51	0.787039
1110.14	0.375109
1111.78	0.305285
1113.41	0.641599
1115.05	-0.355128
1116.68	0.98706
1118.31	0.248043
1119.95	-0.360583
1121.58	0.510177
1123.21	0.161511
1124.85	0.73438
1126.48	0.580815
1128.11	0.770506
1129.74	0.76865
1131.37	0.66067
1133	0.424856
1134.63	0.616439
1136.26	0.52932
1137.89	0.205841
1139.52	-0.268483
1141.15	0.25976
1142.78	0.125313
1144.41	0.119129
1146.04	0.0285387
1147.66	-0.167314
1149.29	0.234596
1150.92	-0.0233536
1152.55	0.272514
1154.17	0.120726
1155.8	-0.0527678
1157.43	0.00771713
1159.05	0.345117
1160.68	0.513318
1162.3	0.0663242
1163.93	-0.0816441
1165.55	0.408916
1167.17	0.218795
1168.8	0.473809
1170.42	0.620268
1172.05	0.870273
1173.67	-0.198725
1175.29	0.471834
1176.91	0.101921
1178.54	0.749567
1180.16	0.0636463
1181.78	0.310559
1183.4	-0.604733
1185.02	-0.208875
1186.64	0.269829
1188.26	-0.288089
1189.88	-0.151878
1191.5	0.529
1193.12	0.154927
1194.74	0.872525
1196.36	0.539851
1197.97	0.963058
1199.59	0.697409
1201.21	1.41747
1202.83	0.824677
1204.44	1.32131
1206.06	0.422666
1207.68	1.94612
1209.29	1.63399
1210.91	0.716033
1212.52	1.50593
1214.14	1.00011
1215.75	1.9286
1217.37	0.835079
1218.98	1.03072
1220.59	1.4126
1222.21	1.23469
1223.82	0.768729
1225.43	1.58925
1227.05	1.41757
1228.66	1.68236
1230.27	2.03144
1231.88	2.44405
1233.49	1.92823
1235.1	2.36498
1236.72	1.62537
1238.33	2.04471
1239.94	2.01028
1241.55	2.12092
1243.16	1.69325
1244.76	2.11272
1246.37	2.03423
1247.98	2.14052
1249.59	2.41122
1251.2	2.37109
1252.8	2.74497
1254.41	2.33386
1256.02	1.34515
1257.62	2.50943
1259.23	2.31018
1260.84	1.44971
1262.44	2.66006
1264.05	1.6134
1265.66	2.47193
1267.26	1.50584
1268.86	2.13442
1270.47	2.3885
1272.07	1.99834
1273.67	1.73115
1275.28	1.58705
1276.88	2.18774
1278.48	2.06186
1280.09	2.6185
1281.69	2.13938
1283.29	1.92976
1284.89	2.0933
1286.49	2.81615
1288.09	1.47333
1289.69	1.62016
1291.29	1.76767
1292.89	2.26631
1294.49	1.71023
1296.09	3.17658
1297.69	2.7403
1299.29	2.8178
1300.89	2.66622
1302.49	2.51304
1304.08	2.27644
1305.68	2.77938
1307.28	2.21258
1308.88	3.1442
1310.47	2.45483
1312.07	2.75013
1313.66	2.45281
1315.26	3.34262
1316.85	3.19111
1318.45	2.46944
1320.04	3.767
1321.64	2.49455
1323.23	3.54209
1324.83	3.0806
1326.42	3.55194
1328.01	2.39929
1329.61	3.09293
1331.2	3.09959
1332.79	3.17017
1334.38	2.90077
1335.97	3.62293
1337.56	2.8124
1339.16	3.04999
1340.75	3.023
1342.34	2.83192
1343.93	2.57803
1345.52	3.32688
1347.11	3.21183
1348.7	1.95784
1350.29	2.07056
1351.87	2.40674
1353.46	2.30573
1355.05	2.30663
1356.64	2.0883
1358.22	2.60863
1359.81	3.18716
1361.4	2.2467
1362.98	2.08397
1364.57	1.44246
1366.16	1.49939
1367.74	1.3781
1369.33	1.89556
1370.91	2.19575
1372.5	1.84117
1374.08	1.60762
1375.67	1.6138
1377.25	1.67984
1378.83	2.0039
1380.41	1.59034
1382	1.33429
1383.58	0.837996
1385.16	1.5334
1386.74	1.23417
1388.33	1.01486
1389.91	1.90818
1391.49	1.19484
1393.07	1.43521
1394.65	1.12067
1396.23	1.00436
1397.81	1.6801
1399.39	0.768815
1400.97	1.42171
1402.55	2.25127
1404.13	1.61589
1405.7	1.79261
1407.28	0.764693
1408.86	0.726604
1410.44	1.57809
1412.01	1.10602
1413.59	1.60074
1415.17	1.36379
1416.74	1.08649
1418.32	1.75501
1419.89	1.65499
1421.47	1.14302
1423.04	1.34215
1424.62	2.03548
1426.19	1.7661
1427.77	2.44227
1429.34	2.50795
1430.91	2.2968
1432.49	1.92665
1434.06	2.55864
1435.63	2.87494
1437.2	2.97507
1438.78	3.31209
1440.35	2.64817
1441.92	3.79383
1443.49	3.82032
1445.06	3.55264
1446.63	3.97314
1448.2	3.98116
1449.77	3.63576
1451.34	3.29098
1452.91	3.61554
1454.48	3.70477
1456.05	3.3218
1457.62	3.54782
1459.18	3.63425
1460.75	3.24578
1462.32	2.83501
1463.89	2.97276
1465.45	2.30293
1467.02	2.28154
1468.59	2.35884
1470.15	1.53459
1471.72	1.2422
1473.28	1.2652
1474.85	1.30885
1476.41	1.21581
1477.98	1.22099
1479.54	1.18689
1481.1	0.839073
1482.67	1.39271
1484.23	0.633241
1485.79	1.0294
1487.36	0.738937
1488.92	1.28881
1490.48	0.56391
1492.04	1.4795
1493.61	0.691231
1495.17	0.585165
1496.73	0.809171
1498.29	0.37068
1499.85	0.380981
1501.41	0.431443
1502.97	0.832403
1504.53	0.20688
1506.09	0.647542
1507.65	0.893214
1509.2	0.287045
1510.76	1.18585
1512.32	0.501038
1513.88	-0.451975
1515.43	-0.114462
1516.99	1.02925
1518.55	0.311227
1520.1	0.457578
1521.66	0.756987
1523.22	0.730403
1524.77	0.721982
1526.33	0.502531
1527.88	0.815643
1529.44	0.214458
1530.99	0.75419
1532.54	1.29308
1534.1	0.82808
1535.65	1.08436
1537.21	0.698936
1538.76	1.1835
1540.31	1.08308
1541.86	0.493195
1543.42	1.89928
1544.97	1.44098
1546.52	1.03968
1548.07	1.29569
1549.62	1.71982
1551.17	1.69395
1552.72	0.827044
1554.27	1.34602
1555.82	1.41778
1557.37	2.03314
1558.92	0.934042
1560.47	1.51704
1562.02	1.46782
1563.56	1.69996
1565.11	2.02626
1566.66	1.69966
1568.21	2.00725
1569.75	1.94106
1571.3	2.117
1572.85	1.95655
1574.39	3.06529
1575.94	2.28866
1577.49	2.38969
1579.03	2.04324
1580.57	2.63119
1582.12	2.92163
1583.66	3.40028
1585.21	2.96464
1586.75	3.29593
1588.3	2.43065
1589.84	2.76193
1591.38	2.41897
1592.92	3.08625
1594.47	2.68588
1596.01	3.01603
1597.55	2.80346
1599.09	3.15417
1600.63	3.50623
1602.17	2.88338
1603.71	2.80444
1605.25	2.7057
1606.79	2.94325
1608.33	2.8774
1609.87	2.52635
1611.41	3.22435
1612.95	2.77334
1614.49	2.50864
1616.03	2.39369
1617.57	2.48569
1619.1	2.14831
1620.64	2.61858
1622.18	3.20286
1623.72	1.82244
1625.25	1.39712
1626.79	2.37461
1628.32	2.17115
1629.86	2.28386
1631.39	2.48844
1632.93	2.15055
1634.46	2.70947
1636	2.18677
1637.53	2.43046
1639.07	2.73078
1640.6	1.96866
1642.13	2.90159
1643.67	3.44111
1645.2	2.93618
1646.73	2.37481
1648.26	2.48275
1649.8	2.72103
1651.33	2.42219
1652.86	2.68183
1654.39	2.68325
1655.92	3.92741
1657.45	3.50311
1658.98	3.54104
1660.51	3.39193
1662.04	3.03738
1663.57	3.23625
1665.1	3.24926
1666.63	3.26273
1668.16	3.55437
1669.68	3.29488
1671.21	2.68774
1672.74	3.18776
1674.27	2.95159
1675.79	2.88094
1677.32	1.96263
1678.85	2.49688
1680.37	2.60626
1681.9	2.71444
1683.42	2.58328
1684.95	2.01197
1686.47	2.4505
1688	2.26597
1689.52	1.66085
1691.05	1.8257
1692.57	1.38658
1694.09	1.4234
1695.62	1.07603
1697.14	1.22205
1698.66	1.14833
1700.18	0.763896
1701.71	1.0541
1703.23	0.28614
1704.75	0.41096
1706.27	0.625993
1707.79	0.0767651
1709.31	0.254925
1710.83	0.196944
1712.35	0.592593
1713.87	0.154376
1715.39	0.296247
1716.91	0.546339
1718.43	-0.125864
1719.95	0.376715
1721.47	0.463678
1722.99	0.0644073
1724.5	0.189394
1726.02	-0.206409
1727.54	0.407733
1729.06	0.23089
1730.57	0.429832
1732.09	0.144099
1733.61	0.547714
1735.12	0.441566
1736.64	0.175928
1738.15	0.920341
1739.67	-0.152521
1741.18	0.0916271
1742.7	0.45293
1744.21	0.660725
1745.72	0.0651484
1747.24	0.117879
1748.75	0.0133352
1750.26	0.626192
1751.77	-0.388726
1753.29	-0.278806
1754.8	-0.127786
1756.31	-0.676607
1757.82	0.441587
1759.33	-0.171154
1760.84	0.129414
1762.36	-0.185156
1763.87	-0.144076
1765.38	-0.23784
1766.89	0.0557299
1768.4	0.135462
1769.91	0.0186415
1771.41	0.00965786
1772.92	0.156625
1774.43	0.181412
1775.94	-0.111685
1777.45	0.0801611
1778.95	-0.235981
1780.46	0.013258
1781.97	0.27204
1783.48	-0.167525
1784.98	0.45919
1786.49	0.318637
1787.99	0.0289745
1789.5	0.337093
1791.01	0.146817
1792.51	-0.0849724
1794.01	0.0834742
1795.52	-0.120775
1797.02	-0.10025
1798.53	-0.0775242
1800.03	0.435309
1801.53	0.195876
1803.04	-0.125646
1804.54	-0.00429726
1806.04	0.0381088
1807.54	-0.0983124
1809.05	-0.0260534
1810.55	0.028038
1812.05	-0.604312
1813.55	0.211819
1815.05	0.0543947
1816.55	0.0884027
1818.05	0.128064
1819.55	0.0293512
1821.05	0.0989933
1822.55	0.0231781
1824.05	-0.0780878
1825.55	-0.0364628
1827.05	0.133217
1828.55	0.0438595
1830.04	0.143732
1831.54	-0.00615788
1833.04	0.0711622
1834.54	0.0335789
1836.03	-0.309423
1837.53	0.235196
1839.03	0.0702782
1840.52	0.0907345
1842.02	0.0757809
1843.51	-0.103232
1845.01	-0.0575724
1846.5	0.0282545
1848	0.160649
1849.49	0.135216
1850.99	0.00667667
1852.48	0.260278
1853.97	0.22781
1855.47	0.119762
1856.96	0.182106
1858.45	0.275908
1859.94	0.116701
1861.44	-0.271663
1862.93	-0.0680952
1864.42	0.0537243
1865.91	-0.20147
1867.4	0.17243
1868.89	0.0991764
1870.38	0.165754
1871.87	-0.254045
1873.36	0.204835
1874.85	0.266452
1876.34	0.357316
1877.83	0.23176
1879.32	0.0248652
1880.81	0.22797
1882.3	0.155693
1882.57	0.126489
1884.07	0.162734
1885.56	0.197979
1887.06	0.214719
1888.55	0.143807
1890.04	0.647357
1891.54	-0.0830479
1893.03	0.475535
1894.52	-0.059103
1896.02	-0.20945
1897.51	0.371535
1899	0.778625
1900.49	0.123288
1901.98	0.405332
1903.47	0.0938053
1904.96	-0.0106258
1906.45	0.144732
1907.94	0.108894
1909.43	0.23004
1910.92	0.0572462
1912.41	-0.166431
1913.9	0.512484
1915.39	-0.091958
1916.88	0.0662384
1918.37	0.605003
1919.85	0.155288
1921.34	0.415904
1922.83	0.122768
1924.32	0.523321
1925.8	0.319275
1927.29	0.428128
1928.78	0.555071
1930.26	0.318307
1931.75	0.25366
1933.23	0.273813
1934.72	0.361037
1936.2	0.186636
1937.69	0.0628815
1939.17	0.336151
1940.66	0.264094
1942.14	0.244922
1943.63	0.140779
1945.11	0.313623
1946.59	0.607449
1948.07	0.504401
1949.56	0.469388
1951.04	0.467602
1952.52	0.344231
1954	0.151543
1955.48	0.233957
1956.96	0.127838
1958.45	0.262927
1959.93	0.364436
1961.41	0.620812
1962.89	0.41442
1964.37	0.345004
1965.85	0.668873
1967.32	-0.0182438
1968.8	0.0472507
1970.28	0.299969
1971.76	0.24456
1973.24	0.274489
1974.72	0.423872
1976.19	0.334644
1977.67	0.0924377
1979.15	0.463401
1980.63	0.204469
1982.1	0.268618
1983.58	0.179427
1985.05	0.293617
1986.53	0.390364
1988	0.436095
1989.48	0.397464
1990.95	0.190482
1992.43	0.390778
1993.9	0.0680103
1995.38	0.304115
1996.85	0.625021
1998.32	0.388332
1999.8	0.387596
2001.27	0.605474
2002.74	0.114144
2004.22	0.364874
2005.69	0.312473
2007.16	0.126259
2008.63	0.244367
2010.1	0.599124
2011.57	0.196896
2013.04	0.468036
2014.51	0.13273
2015.98	0.33499
2017.45	0.552832
2018.92	0.248349
2020.39	0.73318
2021.86	0.142577
2023.33	0.3922
2024.8	0.608996
2026.27	0.0219593
2027.74	0.292177
2029.2	0.413187
2030.67	0.0996284
2032.14	0.206545
2033.61	0.230133
2035.07	0.287258
2036.54	0.83111
2038.01	0.853679
2039.47	0.0522089
2040.94	0.443865
2042.4	0.46623
2043.87	0.32131
2045.33	0.732641
2046.8	0.11827
2048.26	0.480596
2049.72	0.488917
2051.19	1.01867
2052.65	0.838431
2054.12	0.976299
2055.58	0.555474
2057.04	0.756894
2058.5	0.417976
2059.97	0.331801
2061.43	0.734458
2062.89	0.784362
2064.35	0.566195
2065.81	0.584867
2067.27	0.301612
2068.73	0.473419
2070.19	0.544614
2071.65	0.295999
2073.11	0.232334
2074.57	0.572462
2076.03	1.04693
2077.49	0.392655
2078.95	0.445159
2080.41	0.278186
2081.87	0.413619
2083.32	0.56502
2084.78	0.68177
2086.24	1.11713
2087.7	0.323942
2089.15	0.623334
2090.61	0.451853
2092.07	0.851231
2093.52	0.763453
2094.98	0.776044
2096.43	0.871781
2097.89	0.648334
2099.34	0.491388
2100.8	0.300858
2102.25	0.72913
2103.71	0.69024
2105.16	0.786449
2106.61	1.10111
2108.07	0.783053
2109.52	0.465516
2110.97	0.647545
2112.43	0.594552
2113.88	1.02246
2115.33	0.748968
2116.78	0.89045
2118.23	0.716511
2119.68	1.24156
2121.13	0.540754
2122.59	0.854424
2124.04	0.755118
2125.49	0.689719
2126.94	0.408433
2128.39	0.855373
2129.83	1.39979
2131.28	1.26305
2132.73	0.976499
2134.18	1.03764
2135.63	1.23196
2137.08	1.09736
2138.53	1.03117
2139.97	0.917682
2141.42	0.806085
2142.87	1.14228
2144.31	0.83428
2145.76	0.807506
2147.21	1.27704
2148.65	1.11672
2150.1	1.08776
2151.54	0.858737
2152.99	1.40725
2154.43	1.40796
2155.88	1.07676
2157.32	1.20954
2158.77	0.962177
2160.21	1.22992
2161.65	1.58274
2163.1	1.34124
2164.54	1.53264
2165.98	1.24382
2167.43	1.53592
2168.87	1.77718
2170.31	1.43429
2171.75	1.87045
2173.19	1.60551
2174.64	1.12266
2176.07	1.82002
2177.52	1.61952
2178.96	2.06841
2180.4	1.80359
2181.84	1.37356
2183.28	1.50951
2184.72	1.86205
2186.15	1.23326
2187.59	1.78563
2189.03	1.98875
2190.47	1.72581
2191.91	1.51235
2193.35	1.48104
2194.78	1.41474
2196.22	1.42941
2197.66	1.25858
2199.09	0.72005
2200.53	1.34405
2201.97	1.17006
2203.4	1.41187
2204.84	1.30653
2206.27	1.13625
2207.71	1.1655
2209.14	1.42629
2210.58	1.20585
2212.01	0.967857
2213.45	1.25819
2214.88	0.722109
2216.31	1.02928
2217.75	0.991015
2219.18	1.15215
2220.61	0.869073
2222.05	1.27846
2223.48	0.467525
2224.91	0.725954
2226.34	1.31108
2227.78	0.906793
2229.21	1.02723
2230.64	1.24488
2232.07	0.773559
2233.5	0.598243
2234.93	0.669423
2236.36	0.594848
2237.79	0.66917
2239.22	0.843552
2240.65	0.710279
2242.08	1.06849
2243.5	1.15089
2244.93	0.695422
2246.36	0.61424
2247.79	0.971462
2249.22	0.804138
2250.64	0.389926
2252.07	0.576502
2253.5	0.745497
2254.92	0.362186
2256.35	1.08512
2257.78	0.398439
2259.2	0.851185
2260.63	0.625993
2262.05	0.711972
2263.48	0.751186
2264.9	0.25445
2266.33	0.781102
2267.75	0.88432
2269.18	0.742351
2270.6	0.664433
2272.02	0.634701
2273.45	0.849035
2274.87	0.656305
2276.29	0.219311
2277.71	0.238631
2279.14	0.812309
2280.56	0.78284
2281.98	0.802116
2283.4	0.57656
2284.82	1.05264
2286.24	0.696748
2287.66	0.226788
2289.08	0.443042
2290.5	0.382133
2291.92	0.795563
2293.34	0.342688
2294.76	0.969249
2296.18	0.548625
2297.6	0.504204
2299.02	0.328735
2300.44	0.628636
2301.86	0.470006
2303.27	0.541235
2304.69	0.333653
2306.11	0.749837
2307.53	0.771634
2308.94	0.283175
2310.36	0.747386
2311.78	0.158658
2313.19	0.458055
2314.61	0.182037
2316.02	0.828812
2317.44	0.126155
2318.85	0.676087
2320.27	0.599532
2321.68	1.00004
2323.1	0.474148
2324.51	0.836522
2325.92	0.734012
2327.34	0.810905
2328.75	1.03511
2330.16	0.798129
2331.58	0.282619
2332.99	0.641095
2334.4	0.440954
2335.81	0.274066
2337.23	0.452046
2338.64	0.365668
2340.05	0.491578
2341.46	0.386293
2342.87	0.707193
2344.28	0.22406
2345.69	0.430204
2347.1	0.832964
2348.51	0.547758
2349.92	0.622293
2351.33	0.0745859
2352.74	0.179847
2354.15	0.332732
2355.55	-0.183792
2356.96	0.244729
2358.37	0.460834
2359.78	0.335429
2361.19	0.453835
2362.59	0.57196
2364	0.155231
2365.41	-0.066555
2366.81	0.471891
2368.22	0.348055
2369.62	0.128899
2371.03	0.379107
2372.44	0.227848
2373.84	0.0779276
2375.24	0.29876
2376.65	0.647619
2378.05	0.0782213
2379.46	0.600289
2380.86	0.589668
2382.26	-0.545072
2383.67	0.611905
2385.07	0.262261
2386.47	0.32931
2387.88	0.397304
2389.28	0.259352
2390.68	0.314307
2392.08	0.466123
2393.48	0.523494
2394.89	0.406881
2396.29	0.243532
2397.69	0.621399
2399.09	0.0623264
2400.49	0.0124207
2401.89	0.0423088
2403.29	0.0881033
2404.69	0.117546
2406.09	0.38401
2407.48	0.189011
2408.88	0.405573
2410.28	-0.0600605
2411.68	0.425618
2413.08	0.515966
2414.48	0.164536
2415.87	0.210766
2417.27	0.211087
2418.67	0.497508
2420.06	-0.0232506
2421.46	0.168456
2422.86	0.217205
2424.25	0.439927
2425.65	-0.256302
2427.04	0.220714
2428.44	0.223396
2429.83	0.369967
2431.23	0.358828
2432.62	0.331976
2434.02	-0.0767336
2435.41	0.434348
2436.81	0.133492
2438.2	0.768159
2439.59	0.241452
2440.99	0.174421
2442.38	0.0750437
2443.77	0.35623
2445.16	0.303881
2446.56	0.172115
2447.95	0.246314
2449.34	0.431308
2450.73	0.157259
2452.12	-0.115912
2453.51	0.482278
2454.9	0.195334
2456.29	-0.106514
2457.68	-0.107411
2459.07	-0.203408
2460.46	0.300874
2461.85	-0.00236607
2463.24	-0.0376892
2464.63	0.147507
2466.02	0.1269
2467.4	0.232484
2468.79	-0.419435
2470.18	0.0802565
2471.57	0.0587368
2472.95	-0.199876
2474.34	-0.270164
2475.73	0.476843
2477.12	0.122035
2478.5	-0.012393
2479.89	-0.366081
2481.27	-0.123206
2482.66	-0.00613499
2484.04	0.251052
2485.43	0.412851
2486.81	-0.0363703
2488.2	0.419117
2489.58	-0.0936165
2490.97	-0.465115
2492.35	0.0820351
2493.73	-0.0384312
2495.12	0.0756445
2496.5	-0.103448
2497.88	0.0904598
2499.27	0.114151
2500.65	-0.0946207
2502.03	0.314155
2503.41	-0.143638
2504.79	-0.123448
2506.17	0.342779
2507.56	0.115134
2508.94	-0.250193
2510.32	-0.0306625
2511.7	0.219901
2513.08	0.118409
2514.46	0.339785
2515.84	0.255819
2517.22	0.142328
2518.59	0.427131
2519.97	0.192308
2521.35	-0.0578671
2522.73	-0.0185585
2524.11	-0.117582
2525.49	0.255133
2526.86	-0.164875
2528.24	0.253155
2529.62	-0.240358
2530.99	0.286867
2532.37	-0.247787
2533.75	0.115746
2535.12	-0.0516376
2536.5	0.145535
2537.88	0.281093
2539.25	0.278737
2540.63	0.0931816
2542	0.0287485
2543.38	0.116463
2544.75	0.129355
2546.12	-0.129237
2547.5	-0.113317
2548.87	0.0705175
2550.24	0.133086
2551.62	0.210258
2552.99	-0.0779104
2554.36	0.194184
2555.74	0.146506
2557.11	0.0678682
2558.48	0.246912
2559.85	0.0623999
2561.22	0.0908279
2562.59	-0.0163441
2563.96	0.134843
2565.34	-0.122594
2566.71	0.105213
2568.08	0.302857
2569.45	0.0610256
2570.82	0.425463
2572.18	0.0624418
2573.55	0.684813
2574.92	0.155266
2576.29	0.216976
2577.66	0.0511789
2579.03	0.324831
2580.4	0.0522013
2581.77	0.233977
2583.13	0.324323
2584.5	0.353741
2585.87	0.11027
2587.23	0.0488977
2588.6	-0.300164
2589.97	-0.194398
2591.33	0.0627499
2592.7	0.0465536
2594.06	0.408088
2595.43	0.571284
2596.79	-0.114567
2598.16	0.303659
2599.52	-0.246613
2600.89	0.458025
2602.25	0.0148191
2603.62	0.237071
2604.98	0.158059
2606.34	0.0190163
2607.71	-0.225866
2609.07	-0.0495539
2610.43	0.305842
2611.79	0.132355
2613.16	-0.327922
2614.52	-0.0972595
2615.88	-0.10742
2617.24	-0.102248
2618.6	0.0684099
2619.96	0.179885
2621.32	-0.0368185
2622.68	0.0313377
2624.04	-0.169075
2625.4	0.212682
2626.76	0.101533
2628.12	-0.292953
2629.48	-0.404291
2630.84	-0.381778
2632.2	0.205486
2633.56	-0.292548
2634.92	0.115551
2636.28	-0.144353
2637.63	-0.0778427
2638.99	-0.322268
2640.35	0.306764
2641.71	0.0629835
2643.06	0.529013
2644.42	0.153169
2645.77	-0.0747156
2647.13	0.168957
2648.49	-0.0893736
2649.84	0.137381
2651.2	-0.122238
2652.55	0.000153542
2653.91	0.0199194
2655.26	0.304439
2656.62	0.223758
2657.97	0.0861197
2659.33	0.359362
2660.68	-0.259048
2662.03	-0.0294037
2663.39	-0.384942
2664.74	-0.230124
2666.09	0.0111055
2667.44	-0.09834
2668.8	0.0835476
2670.15	0.309163
2671.5	-0.191814
2672.85	0.296709
2674.2	0.175554
2675.55	0.447165
2676.91	-0.151207
2678.26	0.107407
2679.61	0.120448
2680.96	0.192812
2682.31	0.324695
2683.66	-0.469932
2685	-0.117868
2686.35	-0.0116873
2687.7	0.297551
2689.05	0.228023
2690.4	0.0547819
2691.75	0.0245132
2693.1	-0.167145
2694.44	0.191268
2695.79	0.462181
2697.14	-0.178927
2698.49	0.00747967
2699.83	-0.0936899
2701.18	-0.207203
2702.52	0.188035
2703.87	0.266061
2705.22	0.301325
2706.56	0.133649
2707.91	0.139647
2709.25	-0.029027
2710.6	-0.0820761
2711.94	-0.0192375
2713.29	-0.000100136
2714.63	0.52776
2715.97	0.02353
2717.32	0.333334
2718.66	-0.17167
2720.01	0.326695
2721.35	0.242568
2722.69	-0.235137
2724.03	0.46555
2725.38	0.510748
2726.72	0.220727
2728.06	0.206901
2729.4	0.643927
2730.74	0.207676
2732.08	0.45531
2733.42	0.295715
2734.76	0.398225
2736.1	0.428278
2737.44	0.633051
2738.78	0.270615
2740.12	0.533241
2741.46	0.548048
2742.8	0.416678
2744.14	0.517041
2745.48	0.485836
2746.82	0.23632
2748.16	-0.0276918
2749.49	0.332484
2750.83	0.475103
2752.17	0.0380659
2753.51	-0.209946
2754.84	0.0640087
2756.18	0.149699
2757.52	0.438291
2758.85	0.162532
2760.19	0.13345
2761.53	-0.0252295
2762.86	0.323173
2764.2	0.194466
2765.53	0.123639
2766.87	0.312675
2768.2	0.370331
2769.54	0.137177
2770.87	0.177029
2772.2	0.157411
2773.54	0.179862
2774.87	0.302557
2776.2	0.353017
2777.54	0.24558
2778.87	0.0383682
2780.2	0.220115
2781.53	0.0143089
2782.87	-0.176744
2784.2	0.00528526
2785.53	-0.242876
2786.86	0.125423
2788.19	0.10745
2789.52	0.348026
2790.85	-0.254266
2792.18	0.174245
2793.51	0.13139
2794.84	0.117199
2796.17	0.116906
2797.5	-0.0982914
2798.83	0.442743
2800.16	0.0979767
2801.49	-0.13266
2802.82	0.149994
2804.15	-0.223461
2805.47	-0.127023
2806.8	0.295939
2808.13	0.262436
2809.46	0.200073
2810.78	0.634904
2812.11	0.28944
2813.44	0.158611
2814.76	0.27074
2816.09	0.498016
2817.42	0.230587
2818.74	-0.00774956
2820.07	0.235828
2821.39	-0.00302124
2822.72	0.0266275
2824.04	0.0555372
2825.37	0.792262
2826.69	0.35336
2828.02	0.425012
2829.34	0.398277
2830.66	0.612794
2831.99	0.473685
2833.31	0.702545
2834.63	0.54883
2835.96	1.10214
2837.28	0.932981
2838.6	0.81994
2839.92	1.30067
2841.24	1.27235
2842.57	1.47077
2843.89	1.10466
2845.21	2.29411
2846.53	2.3679
2847.85	2.27258
2849.17	2.89812
2850.49	2.67523
2851.81	2.98876
2853.13	2.55253
2854.45	2.7659
2855.77	3.38871
2857.09	3.0931
2858.41	3.64513
2859.72	3.66034
2861.04	3.91534
2862.36	4.1839
2863.68	4.18366
2865	4.77566
2866.31	4.15421
2867.63	5.19757
2868.95	5.33876
2870.26	5.86117
2871.58	6.2568
2872.9	6.25724
2874.21	6.20014
2875.53	6.35269
2876.84	6.55973
2878.16	7.04671
2879.47	6.7874
2880.79	6.82406
2882.1	6.65127
2883.42	6.49432
2884.73	6.24068
2886.05	6.74609
2887.36	6.56366
2888.67	6.63318
2889.99	6.79962
2891.3	6.96461
2892.61	6.79214
2893.92	7.13791
2895.24	6.55983
2896.55	6.75329
2897.86	7.466
2899.17	7.48048
2900.48	7.30034
2901.79	7.66649
2903.11	6.67608
2904.42	7.65816
2905.73	7.45172
2907.04	8.18331
2908.35	8.80437
2909.66	8.79734
2910.97	8.62327
2912.27	8.89696
2913.58	9.3935
2914.89	10.3358
2916.2	9.74919
2917.51	10.3638
2918.82	10.6686
2920.13	10.7911
2921.43	11.1804
2922.74	11.3199
2924.05	10.6092
2925.35	11.0326
2926.66	12.142
2927.97	12.175
2929.27	12.2493
2930.58	12.3645
2931.89	12.7025
2933.19	12.2573
2934.5	12.6366
2935.8	12.3872
2937.11	12.5153
2938.41	12.532
2939.72	11.7526
2941.02	11.561
2942.32	11.3568
2943.63	10.8751
2944.93	10.4932
2946.24	10.3508
2947.54	9.94331
2948.84	9.45104
2950.14	9.26457
2951.45	8.72506
2952.75	8.84064
2954.05	8.71596
2955.35	8.66072
2956.65	9.12475
2957.95	8.79419
2959.26	8.10373
2960.56	8.48161
2961.86	8.00792
2963.16	8.3764
2964.46	7.87393
2965.76	7.46689
2967.06	7.70338
2968.36	7.72707
2969.66	7.48237
2970.96	7.20919
2972.25	7.31613
2973.55	6.69179
2974.85	6.58785
2976.15	6.63768
2977.45	6.06593
2978.74	6.04069
2980.04	6.13948
2981.34	5.96882
2982.64	5.37547
2983.93	5.47196
2985.23	5.3029
2986.52	5.24851
2987.82	4.56387
2989.12	4.73775
2990.41	4.32167
2991.71	4.34043
2993	3.82358
2994.3	3.62817
2995.59	3.45931
2996.89	3.42989
2998.18	3.06334
2999.48	2.73946
3000.77	2.93525
3002.06	2.80924
3003.36	2.62773
3004.65	2.3343
3005.94	2.11062
3007.23	2.11016
3008.53	1.99656
3009.82	1.86784
3011.11	1.89191
3012.4	1.53835
3013.69	1.52005
3014.99	1.34889
3016.28	1.51311
3017.57	1.39954
3018.86	1.56494
3020.15	1.07652
3021.44	1.22731
3022.73	1.23782
3024.02	1.12205
3025.31	0.880661
3026.6	1.29029
3027.89	0.994013
3029.18	0.602789
3030.46	0.973769
3031.75	0.697034
3033.04	1.22239
3034.33	0.809232
3035.62	1.01632
3036.9	0.876738
3038.19	0.790063
3039.48	1.05884
3040.76	1.0225
3042.05	1.03986
3043.34	0.933659
3044.62	1.37623
3045.91	1.25925
3047.19	0.967682
3048.48	0.938812
3049.77	1.18552
3051.05	1.09288
3052.34	1.11033
3053.62	0.827478
3054.9	1.19853
3056.19	1.15878
3057.47	1.21291
3058.76	1.4293
3060.04	1.6177
3061.32	1.28917
3062.61	1.887
3063.89	1.99667
3065.17	1.14307
3066.45	1.50121
3067.74	1.22153
3069.02	1.20051
3070.3	1.17895
3071.58	1.2513
3072.86	0.927499
3074.14	1.24099
3075.42	1.05012
3076.7	0.981069
3077.99	0.858192
3079.26	0.628118
3080.54	0.345656
3081.82	0.404133
3083.1	0.369029
3084.38	0.117486
3085.66	0.150754
3086.94	0.739822
3088.22	0.296298
3089.5	0.421813
3090.78	-0.0369272
3092.05	0.372428
3093.33	0.239086
3094.61	0.228037
3095.89	0.000211716
3097.16	0.273961
3098.44	0.16785
3099.72	0.0749826
3100.99	-0.140039
3102.27	-0.0706615
3103.54	0.472672
3104.82	-0.107233
3106.1	0.0445786
3107.37	-0.00569725
3108.65	0.0804319
3109.92	0.0188055
3111.2	0.107096
3112.47	0.182635
3113.74	0.0281954
3115.02	-0.0723705
3116.29	0.0296278
3117.56	0.523746
3118.84	-0.0415993
3120.11	0.16457
3121.38	0.152366
3122.66	-0.145366
3123.93	-0.172372
3125.2	-0.104578
3126.47	0.139421
3127.74	0.180762
3129.01	0.222486
3130.29	-0.127711
3131.56	0.211542
3132.83	-0.0984335
3134.1	-0.233287
3135.37	-0.125893
3136.64	-0.113997
3137.91	0.0318108
3139.18	0.109326
3140.45	-0.177154
3141.72	-0.113699
3142.99	-0.0905666
3144.26	0.080514
3145.52	-0.0298872
3146.79	-0.0457363
3148.06	0.260491
3149.33	0.0982018
