200.407	0.0406094
202.221	0.0505037
204.035	0.0614138
205.849	0.048892
207.665	-0.109115
209.478	0.0243425
211.291	0.278351
213.104	-0.197072
214.916	0.200567
216.73	-0.178348
218.541	0.242657
220.352	0.63946
222.163	0.0448999
223.973	-0.0646467
225.785	-0.0526781
227.595	-0.47539
229.404	0.140367
231.213	0.0794258
233.022	0.331983
234.83	-0.355741
236.638	-0.174116
238.448	0.153767
240.255	0.50786
242.062	-0.124478
243.868	0.329433
245.675	0.252889
247.48	-0.331873
249.286	0.0952616
251.091	0.133655
252.896	0.314647
254.702	0.083993
256.506	-0.339622
258.31	0.15362
260.113	0.141973
261.916	0.565597
263.719	0.219812
265.521	-0.173263
267.323	-0.0600128
269.125	-0.308464
270.926	0.310371
272.727	-0.0600863
274.527	0.122914
276.328	-0.177495
278.127	-0.165876
279.927	0.0850534
281.726	0.237803
283.525	0.244527
285.323	0.081912
287.121	0.111027
288.919	-0.363412
290.716	0.313518
292.513	-0.0148878
294.31	0.352191
296.104	0.265889
297.9	0.634748
299.696	0.311002
301.491	0.0829248
303.286	-0.0262289
305.081	-0.160092
306.875	-0.0560131
308.669	0.405354
310.463	0.223429
312.256	0.495211
314.047	0.83971
315.839	0.542937
317.631	0.390624
319.423	0.406363
321.215	-0.220349
323.006	0.17841
324.794	0.14852
326.585	-0.287141
328.375	0.590558
330.165	0.225715
331.954	0.194404
333.741	0.71199
335.53	-0.112016
337.318	0.0431786
339.106	0.292345
340.894	0.396589
342.679	1.09767
344.466	-0.0894928
346.253	-0.00938225
348.039	0.286171
349.823	0.868506
351.608	0.424376
353.393	0.21865
355.176	-0.321746
356.961	0.472528
358.745	-0.021925
360.529	0.221559
362.31	-0.178565
364.093	0.72913
365.876	0.0429773
367.657	0.259379
369.439	0.213845
371.221	-0.685003
373	-0.37574
374.781	0.641523
376.56	0.971965
378.34	0.995624
380.12	0.124889
381.898	-0.10777
383.677	0.695924
385.456	0.34787
387.233	0.377185
389.011	-0.226795
390.787	0.673455
392.565	-0.0227308
394.34	0.314971
396.117	-0.145449
397.894	0.0752974
399.668	0.0610657
401.444	0.351868
403.217	0.0314817
404.993	0.156786
406.766	0.492804
408.54	0.593438
410.312	-0.503366
412.086	0.676741
413.858	-0.0203834
415.631	0.104445
417.402	0.44111
419.174	0.121328
420.944	0.0833344
422.716	0.0921187
424.486	-0.063972
426.257	0.342654
428.025	0.185169
429.794	0.496769
431.564	-0.294817
433.332	-0.123815
435.101	-0.586207
436.868	0.171811
438.637	0.671127
440.403	0.324389
442.169	0.163846
443.937	0.35335
445.703	0.025692
447.468	0.727409
449.234	0.632409
450.999	-0.420251
452.765	0.396675
454.528	0.209484
456.292	-0.093946
458.057	0.045485
459.819	0.231289
461.582	-0.117489
463.344	0.209381
465.107	-0.298544
466.868	-0.176779
468.629	0.0168781
470.392	0.119236
472.152	0.292056
473.912	0.091989
475.672	0.123252
477.433	0.50221
479.192	1.0194
480.951	0.627223
482.709	0.724313
484.469	0.170252
486.226	0.316484
487.984	0.464603
489.74	-0.0850868
491.499	0.182248
493.255	0.70759
495.011	-0.0755305
496.767	0.333631
498.522	1.32907
500.277	0.238798
502.033	0.507409
503.788	0.32943
505.541	0.220775
507.295	0.393072
509.048	0.587782
510.801	0.381253
512.553	0.855763
514.308	0.0583754
516.06	0.201105
517.811	0.0135403
519.562	1.14174
521.313	0.36505
523.063	0.809904
524.814	0.033587
526.563	0.642153
528.313	0.0308719
530.062	0.427836
531.811	0.519569
533.559	0.470098
535.308	0.279388
537.055	-0.028996
538.803	0.199069
540.55	-0.0640411
542.297	0.115382
544.043	0.549968
545.789	0.634917
547.535	0.882276
549.281	-0.238482
551.026	0.102325
552.771	0.303741
554.515	0.389347
556.259	0.221084
558.003	0.906709
559.747	0.416461
561.49	-0.210576
563.233	0.313947
564.975	0.424427
566.717	0.190726
568.459	0.417107
570.2	-0.0902109
571.942	-0.0225692
573.68	0.0233817
575.421	0.414831
577.161	0.0735035
578.901	0.421684
580.64	-0.101926
582.379	-0.0055337
584.118	0.366422
585.855	0.737859
587.593	1.3385
589.331	0.0286736
591.068	-0.499857
592.805	-0.0164762
594.54	-0.154443
596.277	0.0527201
598.013	-0.0392365
599.749	0.351663
601.484	-0.0632772
603.217	0.693851
604.952	0.345792
606.687	0.916071
608.421	0.153067
610.153	-0.173109
611.886	0.0978131
613.619	0.0710139
615.35	-0.344848
617.083	0.0645251
618.815	-0.190945
620.547	0.377055
622.276	0.0969944
624.008	0.0680566
625.738	0.107651
627.467	-0.148802
629.197	0.0985236
630.927	0.393187
632.655	0.050559
634.384	-0.13153
636.113	-0.382372
637.839	0.643835
639.568	-0.751493
641.293	0.224318
643.021	0.353596
644.748	0.458818
646.473	0.56405
648.2	0.738795
649.924	0.302445
651.65	0.164702
653.376	-0.561039
655.099	0.762063
656.824	0.404432
658.546	0.685096
660.271	1.08013
661.993	0.74377
663.716	0.770617
665.438	0.772576
667.161	0.612829
668.881	0.360858
670.604	0.20077
672.324	0.476897
674.045	0.70948
675.765	0.417035
677.486	0.0562449
679.204	0.383863
680.925	1.03321
682.643	0.66985
684.361	0.00499916
686.08	0.512393
687.797	0.350836
689.516	0.395656
691.232	0.670234
692.95	0.322357
694.666	0.733988
696.382	0.522936
698.099	0.725386
699.813	0.190309
701.528	0.482774
703.244	1.23378
704.958	1.11039
706.673	0.849012
708.387	0.862866
710.099	0.624321
711.814	0.797944
713.526	0.948128
715.238	1.21213
716.949	0.927621
718.663	0.734922
720.374	1.52275
722.084	1.39847
723.796	1.70673
725.506	1.12776
727.216	1.20823
728.925	0.652809
730.636	0.778165
732.345	1.03886
734.053	0.620077
735.761	1.06107
737.471	1.59178
739.178	0.903829
740.885	1.43511
742.592	0.952927
744.298	1.30546
746.006	1.52379
747.712	1.58571
749.417	1.15391
751.122	1.42053
752.827	1.28337
754.532	0.427399
756.236	0.87739
757.942	1.30646
759.645	1.44433
761.348	1.40298
763.051	1.61023
764.753	1.77241
766.456	1.54975
768.158	1.14444
769.859	2.22939
771.56	1.61685
773.261	1.38743
774.964	1.51938
776.664	1.38041
778.364	2.53134
780.064	1.60329
781.763	1.51279
783.462	1.78449
785.16	1.51213
786.859	2.12062
788.557	1.36829
790.255	1.76742
791.952	1.35
793.649	1.49642
795.346	1.82274
797.042	0.977214
798.738	1.55318
800.434	1.94983
802.127	1.4249
803.823	2.27283
805.517	1.99596
807.212	1.60627
808.906	2.09181
810.6	1.38629
812.293	1.91433
813.987	1.47757
815.68	1.46666
817.372	1.61228
819.064	1.53421
820.754	1.2331
822.446	1.31207
824.137	1.14628
825.828	1.93999
827.519	1.42052
829.209	2.12844
830.897	1.68082
832.587	1.74782
834.276	1.41547
835.966	1.77503
837.654	2.17952
839.341	2.29317
841.029	1.66838
842.717	1.82403
844.404	1.59939
846.091	1.79985
847.776	2.44909
849.463	1.80352
851.149	1.27112
852.833	1.36692
854.519	1.62078
856.204	1.22368
857.889	1.52187
859.572	1.16664
861.256	1.25976
862.94	1.50932
864.622	1.35235
866.305	1.32974
867.988	1.32912
869.669	0.719162
871.351	1.03356
873.033	1.34789
874.713	1.61709
876.395	0.825727
878.074	1.18521
879.755	1.20611
881.435	1.02354
883.114	0.592041
884.794	1.08525
886.471	0.922689
888.15	0.804079
889.829	0.616653
891.506	0.879022
893.184	1.07239
894.861	0.701963
896.538	0.803418
898.214	0.948792
899.891	0.846322
901.566	0.989903
903.242	0.550843
904.916	1.34191
906.592	1.08207
908.266	0.622702
909.941	0.699519
911.614	0.82137
913.288	0.876834
914.961	1.35437
916.635	1.09899
918.306	2.04082
919.979	1.47529
921.651	0.999749
923.321	1.43218
924.994	1.22472
926.664	1.06317
928.336	1.23421
930.005	0.744177
931.674	1.2698
933.345	1.28811
935.014	1.26243
936.682	1.58998
938.352	1.19041
940.019	1.34322
941.687	1.25441
943.356	1.07793
945.022	1.07783
946.689	1.18719
948.357	1.25091
950.022	1.0261
951.688	1.15337
953.355	0.663007
955.02	0.637132
956.684	1.3852
958.348	1.01125
960.014	1.32351
961.678	0.842334
963.341	0.493038
965.004	0.495897
966.669	0.894947
968.331	0.517471
969.993	0.824164
971.655	0.908821
973.316	0.7505
974.979	0.703901
976.64	1.03471
978.3	0.614741
979.961	0.449567
981.62	0.284019
983.28	0.748327
984.941	0.192831
986.6	0.543332
988.259	0.604584
989.917	1.63773
991.575	0.90114
993.233	0.872033
994.89	0.644345
996.547	1.03474
998.204	0.652942
999.86	1.0647
1001.52	1.47561
1003.17	1.73155
1004.83	1.12917
1006.49	0.791233
1008.14	0.871099
1009.79	0.468329
1011.45	0.329595
1013.1	0.585877
1014.76	0.864068
1016.41	-0.236916
1018.06	0.239029
1019.72	0.627644
1021.37	0.142236
1023.02	0.728994
1024.67	1.16331
1026.32	-0.150149
1027.97	0.262831
1029.62	0.238311
1031.27	0.82439
1032.92	0.5137
1034.57	0.22382
1036.22	0.21667
1037.87	0.12174
1039.52	0.222774
1041.17	0.976666
1042.82	0.795872
1044.47	0.638416
1046.11	0.374043
1047.76	0.458737
1049.41	0.0886517
1051.06	0.262486
1052.7	0.545636
1054.35	1.00305
1055.99	0.59129
1057.64	0.592172
1059.28	0.2013
1060.93	1.09275
1062.57	0.765937
1064.22	0.112238
1065.86	0.0448627
1067.5	0.476562
1069.15	0.75512
1070.79	0.511721
1072.43	1.28861
1074.08	0.416193
1075.72	0.499603
1077.36	0.518964
1079	0.21404
1080.64	0.300073
1082.28	0.0825405
1083.92	0.384754
1085.56	0.642254
1087.2	0.226252
1088.84	0.112226
1090.48	0.884099
1092.12	0.486341
1093.76	0.456017
1095.39	0.274835
1097.03	0.202399
1098.67	0.475753
1100.31	0.879289
1101.94	-0.0286131
1103.58	0.162597
1105.22	0.655895
1106.85	0.568856
1108.49	0.718174
1110.12	0.501058
1111.76	0.368778
1113.39	0.127926
1115.03	0.0581055
1116.66	0.610031
1118.29	0.603862
1119.93	0.662513
1121.56	0.85037
1123.19	0.803502
1124.82	1.20679
1126.46	0.733624
1128.09	1.50164
1129.72	1.00851
1131.35	0.729788
1132.98	0.301726
1134.61	0.664538
1136.24	0.00087738
1137.87	0.148644
1139.5	0.12451
1141.13	-0.455488
1142.76	-0.22444
1144.39	0.00645733
1146.01	0.514787
1147.64	0.490701
1149.27	0.488644
1150.9	-0.152009
1152.53	-0.281264
1154.15	0.398293
1155.78	0.608908
1157.4	0.180993
1159.03	0.6682
1160.65	0.305251
1162.28	0.708742
1163.9	0.475166
1165.53	0.156971
1167.15	0.58276
1168.78	0.518679
1170.4	0.113196
1172.02	0.492538
1173.65	0.211848
1175.27	0.0578346
1176.89	0.285209
1178.51	0.00397873
1180.14	0.274034
1181.76	0.671356
1183.38	0.180805
1185	0.57832
1186.62	0.341114
1188.24	-0.129112
1189.86	-0.136271
1191.48	-0.208023
1193.1	-0.133572
1194.71	-0.0179806
1196.33	0.202097
1197.95	0.233843
1199.57	0.120463
1201.19	0.489707
1202.8	0.442912
1204.42	0.419145
1206.04	0.835295
1207.65	0.960361
1209.27	0.418152
1210.88	0.230034
1212.5	0.499372
1214.12	0.516635
1215.73	0.823548
1217.35	0.629147
1218.96	0.12254
1220.57	0.405712
1222.19	0.543662
1223.8	0.88956
1225.41	0.573596
1227.03	0.466221
1228.64	0.918535
1230.25	0.79262
1231.86	0.626431
1233.47	0.729976
1235.08	0.731186
1236.69	0.423344
1238.31	0.75711
1239.92	0.657338
1241.52	1.01272
1243.13	0.768049
1244.74	0.770965
1246.35	1.43523
1247.96	1.14677
1249.57	1.31287
1251.18	1.20971
1252.78	0.961955
1254.39	0.859613
1256	0.634046
1257.6	1.1128
1259.21	1.30305
1260.82	0.811087
1262.42	0.940411
1264.03	0.614125
1265.63	0.784627
1267.24	0.664457
1268.84	1.10325
1270.45	0.442379
1272.05	0.858793
1273.65	1.35724
1275.26	0.942654
1276.86	0.900482
1278.46	0.443361
1280.06	0.752226
1281.67	0.149906
1283.27	1.30664
1284.87	1.26346
1286.47	1.20038
1288.07	0.890198
1289.67	1.01486
1291.27	0.891973
1292.87	1.24427
1294.47	1.86441
1296.07	1.05813
1297.67	0.952962
1299.27	1.46546
1300.87	1.81103
1302.47	1.82534
1304.06	1.20078
1305.66	0.946856
1307.26	1.26809
1308.85	1.60888
1310.45	1.23165
1312.05	1.34687
1313.64	1.44203
1315.24	1.88526
1316.83	1.43021
1318.43	1.46604
1320.02	1.29785
1321.62	1.04772
1323.21	1.10201
1324.8	1.07344
1326.4	1.63246
1327.99	1.72322
1329.59	1.16624
1331.18	1.48159
1332.77	0.828321
1334.36	1.45001
1335.95	1.48711
1337.54	0.859136
1339.14	1.01747
1340.73	1.17425
1342.32	1.61069
1343.91	1.48167
1345.5	1.43225
1347.09	1.28272
1348.67	1.17502
1350.26	1.24971
1351.85	1.14647
1353.44	0.945129
1355.03	0.904944
1356.62	1.24478
1358.2	1.42426
1359.79	1.12356
1361.38	1.10163
1362.96	0.540413
1364.55	1.2355
1366.14	0.794287
1367.72	1.23041
1369.31	1.20933
1370.89	1.26907
1372.48	0.932027
1374.06	0.4965
1375.64	1.01663
1377.23	1.03943
1378.81	1.20111
1380.39	0.983885
1381.98	0.566712
1383.56	0.665754
1385.14	1.12168
1386.72	0.921158
1388.3	1.03866
1389.89	1.11691
1391.47	1.25539
1393.05	0.700168
1394.63	0.601705
1396.21	0.602301
1397.79	0.225705
1399.37	1.17621
1400.95	0.916918
1402.52	0.855331
1404.1	0.754202
1405.68	0.732683
1407.26	0.771182
1408.84	0.751084
1410.42	0.178363
1411.99	0.652537
1413.57	0.671925
1415.15	0.493256
1416.72	0.885974
1418.3	0.942859
1419.87	0.921135
1421.45	0.82154
1423.02	1.03826
1424.6	1.09883
1426.17	0.530651
1427.75	0.769906
1429.32	0.930243
1430.89	0.952067
1432.47	0.697434
1434.04	0.815912
1435.61	1.64194
1437.18	1.93678
1438.76	2.07488
1440.33	1.15254
1441.9	1.94099
1443.47	1.7081
1445.04	1.51485
1446.61	1.69521
1448.18	1.44326
1449.75	1.60435
1451.32	1.58892
1452.89	1.61329
1454.46	1.95276
1456.03	1.19052
1457.6	1.50982
1459.16	2.08396
1460.73	1.94808
1462.3	1.29903
1463.87	1.61262
1465.43	1.4532
1467	1.15612
1468.56	1.88057
1470.13	1.19215
1471.7	0.642556
1473.26	1.38859
1474.83	1.0957
1476.39	0.979733
1477.96	0.589425
1479.52	0.885239
1481.08	1.0829
1482.65	0.790508
1484.21	0.889977
1485.77	0.969534
1487.34	0.715483
1488.9	0.949968
1490.46	0.380466
1492.02	0.259683
1493.58	0.586652
1495.15	0.618794
1496.71	0.143339
1498.27	0.602963
1499.83	0.712004
1501.39	0.608123
1502.95	0.932087
1504.51	0.616804
1506.07	0.399127
1507.63	0.858247
1509.18	0.0405483
1510.74	0.439435
1512.3	0.0464988
1513.86	0.308641
1515.41	0.512567
1516.97	0.255691
1518.53	1.01638
1520.08	0.435019
1521.64	0.601361
1523.2	-0.0165968
1524.75	0.626318
1526.31	0.675735
1527.86	0.495759
1529.42	0.848224
1530.97	0.459123
1532.52	0.355936
1534.08	0.462021
1535.63	0.738926
1537.19	0.411374
1538.74	0.707961
1540.29	1.02314
1541.84	0.979865
1543.4	0.842494
1544.95	0.573616
1546.5	1.00005
1548.05	0.44978
1549.6	0.669113
1551.15	1.07538
1552.7	1.12586
1554.25	0.840609
1555.8	0.725048
1557.35	0.667078
1558.9	0.983934
1560.45	0.66794
1562	0.707775
1563.54	0.394069
1565.09	1.53615
1566.64	0.66321
1568.19	0.909693
1569.73	0.50261
1571.28	0.748497
1572.83	0.844832
1574.37	1.01572
1575.92	1.44797
1577.47	1.22704
1579.01	0.969081
1580.56	1.17839
1582.1	0.641382
1583.64	0.964127
1585.19	1.2877
1586.73	0.994992
1588.28	1.13237
1589.82	1.17612
1591.36	1.29442
1592.9	1.31877
1594.45	1.02447
1595.99	1.17967
1597.53	0.979211
1599.07	0.891641
1600.61	0.729532
1602.15	1.14946
1603.69	0.987706
1605.23	0.937979
1606.77	1.16901
1608.31	1.02263
1609.85	1.3442
1611.39	1.21275
1612.93	1.15483
1614.47	1.39616
1616.01	0.755254
1617.55	0.809047
1619.08	1.06979
1620.62	0.769692
1622.16	1.05133
1623.7	1.18379
1625.23	0.773427
1626.77	1.2235
1628.3	1.20453
1629.84	0.885204
1631.37	0.88306
1632.91	1.12338
1634.44	1.04631
1635.98	0.764736
1637.51	0.931759
1639.05	1.00596
1640.58	0.558325
1642.11	0.725336
1643.65	1.39408
1645.18	1.07479
1646.71	0.885322
1648.24	1.23472
1649.78	1.08256
1651.31	0.504586
1652.84	1.63461
1654.37	1.2072
1655.9	1.20695
1657.43	1.54018
1658.96	0.816804
1660.49	1.00015
1662.02	0.775102
1663.55	0.900683
1665.08	1.76438
1666.61	1.46428
1668.14	1.34996
1669.66	1.43979
1671.19	1.08862
1672.72	1.30963
1674.25	1.23629
1675.77	1.32851
1677.3	1.45682
1678.83	1.12419
1680.35	0.496843
1681.88	0.531103
1683.4	0.675215
1684.93	0.984342
1686.45	1.01827
1687.98	0.832584
1689.5	0.574152
1691.03	0.700693
1692.55	0.863774
1694.07	0.45961
1695.6	0.87841
1697.12	0.876299
1698.64	0.873904
1700.17	0.542653
1701.69	0.466736
1703.21	0.937207
1704.73	0.514183
1706.25	0.3644
1707.77	0.560042
1709.29	-0.134748
1710.81	0.641712
1712.33	0.564745
1713.85	0.125688
1715.37	0.339106
1716.89	0.353159
1718.41	0.29479
1719.93	0.471204
1721.45	0.376815
1722.97	0.13878
1724.49	0.586498
1726	0.620576
1727.52	-0.0282946
1729.04	0.00785208
1730.55	0.0620871
1732.07	0.185819
1733.59	-0.132042
1735.1	0.373893
1736.62	0.298984
1738.13	0.602895
1739.65	0.218213
1741.16	-0.137196
1742.68	0.297145
1744.19	0.132615
1745.7	0.56398
1747.22	0.023953
1748.73	0.11009
1750.24	-0.0727038
1751.76	0.0202169
1753.27	0.444926
1754.78	-0.368114
1756.29	-0.240347
1757.8	0.315325
1759.31	0.645782
1760.83	0.56637
1762.34	0.0575891
1763.85	-0.130711
1765.36	0.11819
1766.87	0.000833035
1768.38	-0.123764
1769.89	-0.043365
1771.39	-0.184375
1772.9	-0.0982118
1774.41	0.212636
1775.92	0.115033
1777.43	0.316637
1778.94	0.405435
1780.44	0.194931
1781.95	0.14512
1783.46	0.083622
1784.96	0.0176163
1786.47	-0.0099473
1787.97	0.250234
1789.48	0.115874
1790.99	0.377013
1792.49	-0.222091
1794	-0.159237
1795.5	0.0600715
1797	-0.0731726
1798.51	0.00125837
1800.01	0.227398
1801.51	0.222983
1803.02	0.166973
1804.52	0.0989223
1806.02	0.475416
1807.53	0.370256
1809.03	0.248189
1810.53	0.00848007
1812.03	-0.0225468
1813.53	0.330361
1815.03	-0.158319
1816.53	0.0505691
1818.03	0.138959
1819.53	0.370234
1821.03	0.211996
1822.53	0.196563
1824.03	0.270314
1825.53	-0.0486946
1827.03	0.055912
1828.53	0.00463915
1830.02	-0.0621548
1831.52	0.0824695
1833.02	0.198108
1834.52	-0.00385189
1836.01	0.0878949
1837.51	0.00422335
1839.01	0.246975
1840.5	0.285592
1842	0.263185
1843.49	0.536331
1844.99	0.0974455
1846.48	-0.0585132
1847.98	0.0933957
1849.47	0.0171919
1850.97	0.143864
1852.46	0.161243
1853.95	-0.00502443
1855.45	0.246465
1856.94	0.267942
1858.43	-0.203223
1859.93	-0.145244
1861.42	0.187433
1862.91	0.238198
1864.4	0.149462
1865.89	0.44512
1867.38	0.234275
1868.87	0.181339
1870.36	-0.176025
1871.85	0.0650668
1873.34	0.253416
1874.83	0.240697
1876.32	0.112615
1877.81	0.429665
1879.3	0.25148
1880.79	0.041935
1882.28	-0.279407
1882.52	-0.338232
1884.02	0.0099988
1885.51	0.0437169
1887.01	-0.201938
1888.5	0.109329
1889.99	-0.118939
1891.49	0.21026
1892.98	0.105836
1894.47	0.315802
1895.97	0.161874
1897.46	-0.130585
1898.95	-0.0579453
1900.44	0.08354
1901.93	0.102008
1903.42	0.0669293
1904.91	0.0655284
1906.4	0.272011
1907.89	0.217777
1909.38	-0.356646
1910.87	0.31936
1912.36	0.0242553
1913.85	0.111276
1915.34	-0.252516
1916.83	0.129074
1918.32	0.319409
1919.8	0.301357
1921.29	-0.080492
1922.78	0.438626
1924.27	-0.0286074
1925.75	0.561139
1927.24	0.113018
1928.73	-0.0230188
1930.21	0.100636
1931.7	0.189059
1933.18	0.241715
1934.67	0.275647
1936.15	-0.158899
1937.64	-0.161589
1939.12	-0.181899
1940.61	-0.0638261
1942.09	0.141035
1943.57	0.0187602
1945.06	0.328347
1946.54	-0.223912
1948.02	-0.0694256
1949.51	-0.122324
1950.99	0.25452
1952.47	0.0107594
1953.95	-0.250319
1955.43	0.313704
1956.91	-0.015676
1958.4	0.136415
1959.88	-0.328636
1961.36	-0.0383978
1962.84	-0.10819
1964.32	0.198861
1965.8	0.214124
1967.27	0.194604
1968.75	0.345641
1970.23	0.137058
1971.71	-0.0885143
1973.19	0.0787573
1974.67	0.143529
1976.14	0.0208697
1977.62	0.102895
1979.1	0.20191
1980.58	0.351801
1982.05	-0.365552
1983.53	0.361695
1985	-0.066576
1986.48	-0.239974
1987.95	0.129178
1989.43	-0.0438809
1990.9	0.173036
1992.38	0.305851
1993.85	0.101217
1995.33	0.0325766
1996.8	0.0994697
1998.27	-0.154585
1999.75	0.35091
2001.22	0.0961556
2002.69	0.0267839
2004.16	0.260822
2005.64	0.275843
2007.11	0.30828
2008.58	0.139379
2010.05	0.156416
2011.52	0.207527
2012.99	-0.0442986
2014.46	0.0738597
2015.93	-0.0105109
2017.4	0.291302
2018.87	-0.0801988
2020.34	0.0859075
2021.81	0.386084
2023.28	0.350511
2024.75	0.0974789
2026.22	0.214548
2027.69	-0.0866141
2029.15	0.284273
2030.62	0.337553
2032.09	0.37484
2033.56	0.211092
2035.02	0.299115
2036.49	0.134914
2037.96	0.171855
2039.42	-0.178053
2040.89	0.261931
2042.35	0.349307
2043.82	0.201849
2045.28	0.0886259
2046.75	-0.057796
2048.21	0.233827
2049.67	0.373821
2051.14	0.0579138
2052.6	-0.0738578
2054.07	0.433868
2055.53	0.198184
2056.99	-0.257594
2058.45	0.0614982
2059.92	0.0264921
2061.38	0.126524
2062.84	-0.261037
2064.3	0.0928149
2065.76	0.00979614
2067.22	0.179854
2068.68	0.131583
2070.14	-0.000626564
2071.6	0.254394
2073.06	0.340991
2074.52	0.107457
2075.98	0.513557
2077.44	-0.124705
2078.9	0.668134
2080.36	0.231303
2081.82	0.248717
2083.27	-0.172037
2084.73	0.164128
2086.19	0.129441
2087.65	0.161566
2089.1	0.193345
2090.56	0.17454
2092.02	0.373948
2093.47	0.0864697
2094.93	0.0842042
2096.38	0.18213
2097.84	0.37991
2099.29	-0.192926
2100.75	0.154632
2102.2	0.418269
2103.66	-0.102658
2105.11	0.229145
2106.56	-0.172361
2108.02	0.0275846
2109.47	0.110959
2110.92	0.377257
2112.38	-0.324089
2113.83	0.0731702
2115.28	0.0527024
2116.73	-0.118013
2118.18	0.226706
2119.63	0.4391
2121.09	-0.259709
2122.54	-0.0112677
2123.99	0.304453
2125.44	0.255812
2126.89	0.389361
2128.34	0.32319
2129.79	0.123451
2131.23	0.121671
2132.68	0.334486
2134.13	0.414684
2135.58	0.0985684
2137.03	0.494519
2138.48	0.164543
2139.92	-0.114434
2141.37	0.417666
2142.82	0.107608
2144.27	-0.119497
2145.71	0.11671
2147.16	0.56814
2148.6	-0.123403
2150.05	-0.219554
2151.49	-0.0844555
2152.94	-0.248274
2154.38	-0.213828
2155.83	0.25103
2157.27	0.0863748
2158.72	0.0713263
2160.16	0.272573
2161.6	0.342604
2163.05	0.579837
2164.49	0.105121
2165.93	0.543476
2167.38	-0.0144639
2168.82	0.0412278
2170.26	0.212159
2171.7	0.13216
2173.14	0.183839
2174.58	0.417491
2176.03	0.0186911
2177.47	0.23538
2178.91	-0.112716
2180.35	-0.277232
2181.79	0.1574
2183.23	0.110295
2184.67	0.262965
2186.1	0.149567
2187.54	0.202535
2188.98	-0.0606546
2190.42	0.0255942
2191.86	0.0117989
2193.3	0.280531
2194.73	-0.217548
2196.17	0.564963
2197.61	0.197432
2199.05	0.128344
2200.48	-0.074316
2201.92	0.437109
2203.35	0.234885
2204.79	0.199518
2206.22	-0.348837
2207.66	-0.150862
2209.1	0.262094
2210.53	-0.0541496
2211.97	0.0262332
2213.4	-0.158486
2214.83	0.268097
2216.27	0.215851
2217.7	0.0490108
2219.13	-0.00135326
2220.57	0.674308
2222	0.426727
2223.43	0.0964003
2224.86	0.292292
2226.29	0.141115
2227.72	0.120493
2229.16	0.0496869
2230.59	0.306577
2232.02	0.34969
2233.45	0.0655575
2234.88	0.142295
2236.31	0.12173
2237.74	-0.0445766
2239.17	0.0680547
2240.6	0.100487
2242.03	0.378868
2243.45	-0.0268626
2244.88	0.236395
2246.31	-0.153271
2247.74	0.0757418
2249.17	-0.137088
2250.59	0.153754
2252.02	0.149872
2253.45	-0.0660305
2254.87	0.0273666
2256.3	-0.089406
2257.73	0.233756
2259.15	-0.106337
2260.58	0.269586
2262	0.111881
2263.43	0.393704
2264.85	0.0585504
2266.28	0.0642147
2267.7	0.508537
2269.13	0.268995
2270.55	0.0286918
2271.97	0.292663
2273.4	0.00287819
2274.82	0.364619
2276.24	0.140101
2277.67	0.241568
2279.09	-0.260061
2280.51	-0.126037
2281.93	-0.0409689
2283.35	0.288795
2284.77	0.178146
2286.2	-0.324156
2287.62	-0.287671
2289.04	-0.00585556
2290.46	0.11306
2291.88	0.150541
2293.3	0.122731
2294.72	0.0457873
2296.13	0.492509
2297.55	0.399173
2298.97	0.305791
2300.39	0.032177
2301.81	-0.389065
2303.23	-0.137885
2304.64	0.130083
2306.06	-0.20939
2307.48	0.321405
2308.89	0.227611
2310.31	0.166191
2311.73	0.400514
2313.14	0.536222
2314.56	0.376053
2315.98	0.364518
2317.39	0.20529
2318.81	0.244037
2320.22	0.0682321
2321.64	0.0564551
2323.05	0.422876
2324.46	0.24296
2325.88	0.589345
2327.29	0.356973
2328.7	0.486827
2330.12	0.484906
2331.53	0.269647
2332.94	-0.290221
2334.35	0.138074
2335.77	0.171542
2337.18	0.0566411
2338.59	0.187698
2340	-0.0108581
2341.41	-0.24273
2342.82	0.0176525
2344.23	-0.0339336
2345.64	-0.0197034
2347.05	0.0929904
2348.46	0.271043
2349.87	0.0069046
2351.28	0.167563
2352.69	0.327226
2354.1	0.404287
2355.51	0.154661
2356.91	0.377495
2358.32	0.0793457
2359.73	-0.0556073
2361.14	-0.0279016
2362.54	-0.0651164
2363.95	0.108203
2365.36	0.264927
2366.76	-0.128018
2368.17	-0.0838122
2369.58	-0.0712166
2370.98	0.200223
2372.39	0.278993
2373.79	0.245721
2375.2	0.293252
2376.6	0.211745
2378	0.0330296
2379.41	0.0462246
2380.81	-0.102351
2382.22	-0.123374
2383.62	0.0151544
2385.02	-0.134749
2386.43	0.099421
2387.83	0.285848
2389.23	0.153921
2390.63	-0.199875
2392.03	0.0526614
2393.44	0.194241
2394.84	-0.0294914
2396.24	0.144925
2397.64	0.176655
2399.04	0.335909
2400.44	-0.0764246
2401.84	0.258136
2403.24	0.100309
2404.64	0.116917
2406.04	0.00588989
2407.44	0.306801
2408.84	0.400666
2410.23	-0.17157
2411.63	0.0490875
2413.03	0.254301
2414.43	0.365342
2415.83	-0.0607758
2417.22	-0.31177
2418.62	-0.05549
2420.02	0.549563
2421.41	0.140977
2422.81	0.128054
2424.21	0.0990748
2425.6	0.00674343
2427	0.152489
2428.39	-0.0656843
2429.79	0.0180087
2431.18	0.356153
2432.58	0.0756192
2433.97	0.38206
2435.36	0.306582
2436.76	0.309388
2438.15	-0.372154
2439.54	0.13693
2440.94	0.184558
2442.33	-0.0381184
2443.72	-0.149763
2445.12	0.230254
2446.51	0.530553
2447.9	0.307517
2449.29	-0.0895762
2450.68	0.337171
2452.07	0.194194
2453.46	0.178473
2454.85	0.00519323
2456.24	0.0539293
2457.64	0.134526
2459.02	-0.148789
2460.41	0.26338
2461.8	0.153026
2463.19	0.342443
2464.58	-0.132296
2465.97	0.309092
2467.36	-0.10239
2468.75	-0.0244226
2470.13	0.00601053
2471.52	-0.137308
2472.91	-0.265202
2474.3	0.173242
2475.68	-0.113021
2477.07	0.0881286
2478.45	-0.13511
2479.84	0.0187292
2481.23	0.439002
2482.61	0.0438557
2484	0.228214
2485.38	0.0205884
2486.77	0.140626
2488.15	0.197153
2489.54	0.143885
2490.92	-0.0183101
2492.3	0.0534468
2493.69	0.234506
2495.07	-0.204299
2496.45	0.180048
2497.84	-0.0705919
2499.22	-0.0266042
2500.6	0.171751
2501.98	-0.0171547
2503.36	0.102365
2504.75	0.267256
2506.13	-0.0925465
2507.51	-0.190094
2508.89	0.127745
2510.27	-0.0922956
2511.65	0.010757
2513.03	0.0375361
2514.41	0.141481
2515.79	0.0163312
2517.17	0.672041
2518.55	0.257243
2519.93	0.133342
2521.3	0.1621
2522.68	-0.0080905
2524.06	0.324657
2525.44	0.0467434
2526.82	0.119314
2528.19	-0.097033
2529.57	0.113468
2530.95	-0.115861
2532.32	0.203186
2533.7	0.325627
2535.08	0.129556
2536.45	0.0701928
2537.83	0.10149
2539.2	0.283943
2540.58	0.131648
2541.95	0.328257
2543.33	0.358043
2544.7	0.145755
2546.08	0.283304
2547.45	0.239754
2548.82	-0.000395775
2550.2	0.396741
2551.57	0.414223
2552.94	0.0667648
2554.32	0.416615
2555.69	0.158789
2557.06	-0.00832605
2558.43	0.112653
2559.8	-0.296816
2561.18	0.0975513
2562.55	0.113401
2563.92	-0.0218616
2565.29	0.222043
2566.66	0.269132
2568.03	-0.0474324
2569.4	-0.0457487
2570.77	-0.135009
2572.14	-0.224253
2573.51	0.110991
2574.88	0.143148
2576.25	-0.0823984
2577.61	-0.217071
2578.98	-0.230611
2580.35	0.0740228
2581.72	0.135746
2583.09	-0.212177
2584.45	0.228103
2585.82	0.0770802
2587.19	0.138363
2588.55	-0.0881796
2589.92	0.124869
2591.29	0.246875
2592.65	0.232138
2594.02	-0.101317
2595.38	-0.238458
2596.75	-0.0432167
2598.11	-0.0151596
2599.48	0.118421
2600.84	0.0252643
2602.21	0.430943
2603.57	0.0366926
2604.93	0.231672
2606.3	0.245645
2607.66	0.183967
2609.02	-0.149571
2610.39	0.179118
2611.75	0.265553
2613.11	0.0502295
2614.47	0.210268
2615.83	0.204722
2617.19	0.0494537
2618.56	0.0596671
2619.92	-0.0792122
2621.28	-0.0528626
2622.64	0.272668
2624	0.135036
2625.36	0.0721555
2626.72	0.0688152
2628.08	-0.545708
2629.44	0.225219
2630.8	0.102113
2632.15	0.0534487
2633.51	0.00482225
2634.87	0.0304561
2636.23	0.115345
2637.59	0.244539
2638.94	0.373562
2640.3	-0.074491
2641.66	0.2175
2643.02	0.184266
2644.37	0.328357
2645.73	0.295158
2647.09	0.0995374
2648.44	0.124652
2649.8	0.252124
2651.15	0.364125
2652.51	-0.082406
2653.86	0.176335
2655.22	0.171299
2656.57	0.284257
2657.93	-0.0850716
2659.28	0.175711
2660.63	0.202589
2661.99	0.243944
2663.34	0.32862
2664.69	0.00387573
2666.05	-0.0876021
2667.4	0.0830417
2668.75	-0.0233378
2670.1	0.103447
2671.45	0.0850348
2672.81	0.0525823
2674.16	0.325585
2675.51	0.308446
2676.86	0.0741315
2678.21	-0.116007
2679.56	0.100554
2680.91	0.0278463
2682.26	-0.0729809
2683.61	0.305556
2684.96	0.0902948
2686.31	0.165439
2687.66	0.00828075
2689	0.0679469
2690.35	0.257043
2691.7	0.386654
2693.05	0.224846
2694.4	0.00444937
2695.74	0.102988
2697.09	0.114961
2698.44	-0.30656
2699.79	-0.0317283
2701.13	0.171953
2702.48	0.000223637
2703.83	0.0899734
2705.17	0.00621176
2706.52	0.197999
2707.86	0.302701
2709.21	-0.0283241
2710.55	0.322659
2711.9	0.179769
2713.24	0.385427
2714.58	0.314986
2715.93	-0.366229
2717.27	0.0865035
2718.62	0.0301194
2719.96	0.075295
2721.3	-0.112698
2722.65	0.00456667
2723.99	0.601837
2725.33	0.0052309
2726.67	0.281673
2728.01	0.0339012
2729.35	0.324432
2730.7	0.469278
2732.04	0.148509
2733.38	0.264286
2734.72	0.205624
2736.06	0.176211
2737.4	0.0741825
2738.74	0.277555
2740.08	0.218957
2741.42	0.218176
2742.76	0.0860786
2744.1	0.0843234
2745.43	0.314553
2746.77	0.0650616
2748.11	-0.213385
2749.45	0.103301
2750.79	0.129808
2752.12	0.127489
2753.46	0.139834
2754.8	0.239231
2756.14	-0.182748
2757.47	0.0616975
2758.81	0.00220633
2760.14	-0.0425053
2761.48	0.217041
2762.81	0.100677
2764.15	0.187128
2765.49	0.230159
2766.82	0.0847697
2768.16	-0.0612545
2769.49	-0.251501
2770.82	0.222156
2772.16	0.0299101
2773.49	-0.148385
2774.82	0.33639
2776.16	-0.0871544
2777.49	0.0515609
2778.82	-0.183437
2780.16	0.415755
2781.49	0.0665812
2782.82	0.0480094
2784.15	-0.0566273
2785.48	-0.118153
2786.82	-0.093523
2788.15	0.131842
2789.48	0.128632
2790.81	0.111794
2792.14	-0.0331311
2793.47	0.0510726
2794.8	-0.0791054
2796.13	0.104879
2797.46	-0.0116048
2798.79	0.342759
2800.12	0.22553
2801.44	-0.105773
2802.77	0.147681
2804.1	-0.368847
2805.43	-0.03057
2806.76	-0.0774422
2808.08	-0.266938
2809.41	0.282568
2810.74	-0.077611
2812.07	-0.153005
2813.39	0.183817
2814.72	0.237864
2816.05	-0.231479
2817.37	-0.189645
2818.7	-0.119048
2820.02	0.334246
2821.35	-0.14823
2822.67	-0.0784235
2824	0.33094
2825.32	0.144944
2826.65	0.242293
2827.97	-0.226343
2829.3	0.225748
2830.62	-0.142927
2831.94	-0.0725961
2833.26	0.125088
2834.59	0.067749
2835.91	0.052526
2837.23	0.305758
2838.56	0.261496
2839.88	0.344383
2841.2	0.41317
2842.52	0.369154
2843.84	0.551762
2845.16	0.551158
2846.48	0.381429
2847.8	0.593548
2849.12	1.04599
2850.45	0.777388
2851.77	1.05965
2853.08	1.0447
2854.4	0.80338
2855.72	0.901076
2857.04	0.815093
2858.36	1.22353
2859.68	0.982213
2861	0.79733
2862.32	1.04992
2863.63	1.20334
2864.95	1.56814
2866.27	1.45312
2867.59	1.73324
2868.9	1.61877
2870.22	1.9699
2871.54	2.10962
2872.85	2.15043
2874.17	2.20472
2875.48	2.27223
2876.8	2.25434
2878.11	2.43282
2879.43	2.20304
2880.74	2.62033
2882.06	2.12467
2883.37	2.51503
2884.69	2.06351
2886	2.39878
2887.31	2.32697
2888.63	2.28291
2889.94	2.93962
2891.25	2.3192
2892.57	2.16133
2893.88	2.87201
2895.19	2.54619
2896.5	2.64119
2897.82	2.47111
2899.13	2.41385
2900.44	2.48314
2901.75	3.1403
2903.06	2.79045
2904.37	2.83238
2905.68	2.72069
2906.99	3.14097
2908.3	2.90448
2909.61	2.89246
2910.92	3.1328
2912.23	2.70135
2913.54	3.31917
2914.85	3.76799
2916.16	3.37543
2917.46	3.62556
2918.77	3.84676
2920.08	3.73203
2921.39	3.67384
2922.7	3.81239
2924	3.81225
2925.31	4.14851
2926.62	4.19175
2927.92	4.22107
2929.23	4.15223
2930.54	3.80335
2931.84	4.08318
2933.15	4.04129
2934.45	3.90155
2935.76	4.43277
2937.06	4.05571
2938.37	4.08409
2939.67	3.70747
2940.98	4.04392
2942.28	3.76622
2943.58	3.69907
2944.89	3.05978
2946.19	3.16219
2947.49	3.3631
2948.8	3.27007
2950.1	2.84009
2951.4	2.8147
2952.7	2.66189
2954.01	3.08211
2955.31	2.88598
2956.61	2.62061
2957.91	2.87467
2959.21	2.89288
2960.51	2.85721
2961.81	2.72498
2963.11	2.49495
2964.41	2.47477
2965.71	2.70639
2967.01	2.51535
2968.31	2.07012
2969.61	2.60842
2970.91	2.69681
2972.21	2.08205
2973.51	2.19901
2974.81	2.0486
2976.1	2.05252
2977.4	1.6894
2978.7	2.08535
2980	1.87456
2981.29	1.95841
2982.59	1.85891
2983.89	1.90035
2985.18	1.67558
2986.48	1.39588
2987.78	1.13138
2989.07	1.3454
2990.37	1.25049
2991.66	1.32387
2992.96	1.11541
2994.25	1.159
2995.55	0.850574
2996.84	0.991129
2998.14	0.892848
2999.43	0.69666
3000.73	1.10395
3002.02	0.628368
3003.31	0.587795
3004.61	0.351223
3005.9	0.604759
3007.19	0.563715
3008.48	0.494119
3009.77	0.228209
3011.07	0.325414
3012.36	0.268605
3013.65	0.351398
3014.94	0.0998282
3016.23	0.18346
3017.52	0.406769
3018.81	0.0179896
3020.1	0.019105
3021.4	0.145017
3022.68	-0.229821
3023.97	-0.0218906
3025.26	-0.272353
3026.55	0.0176883
3027.84	0.16916
3029.13	-0.107393
3030.42	0.22547
3031.71	0.186206
3033	0.0235314
3034.28	0.206246
3035.57	-0.05299
3036.86	-0.0233355
3038.15	0.280541
3039.43	-0.133131
3040.72	0.0303226
3042.01	-0.0955253
3043.29	-0.0702724
3044.58	0.0924215
3045.87	0.25595
3047.15	0.0519738
3048.44	0.478055
3049.72	0.0319414
3051.01	0.324106
3052.29	-0.0244565
3053.58	0.40479
3054.86	0.178652
3056.15	0.374661
3057.43	0.351604
3058.71	-0.0671
3060	0.222543
3061.28	0.484921
3062.56	0.434963
3063.84	0.209368
3065.13	0.528853
3066.41	0.292009
3067.69	0.436619
3068.97	0.0648456
3070.26	0.12804
3071.54	0.0546393
3072.82	-0.00599241
3074.1	0.0548959
3075.38	-0.278936
3076.66	-0.0286732
3077.94	0.262371
3079.22	-0.0837045
3080.5	0.181952
3081.78	0.0282249
3083.06	0.187451
3084.34	0.279434
3085.62	0.0729589
3086.9	0.110463
3088.18	0.201772
3089.45	0.102586
3090.73	0.301655
3092.01	-0.0149541
3093.29	0.0213718
3094.56	0.139304
3095.84	-0.0272942
3097.12	-0.288617
3098.4	0.0871673
3099.67	-0.0521708
3100.95	-0.137269
3102.22	0.102782
3103.5	0.0586338
3104.78	-0.0798264
3106.05	0.242459
3107.33	0.105294
3108.6	0.00952005
3109.88	0.171711
3111.15	0.0503998
3112.43	0.173397
3113.7	0.1478
3114.97	0.312009
3116.25	0.340418
3117.52	0.205487
3118.79	0.313923
3120.07	0.0960941
3121.34	-0.190032
3122.61	0.0250993
3123.88	0.104525
3125.16	0.0622001
3126.43	0.250362
3127.7	0.100613
3128.97	0.519422
3130.24	0.302824
3131.51	0.329794
3132.79	0.0729427
3134.06	0.329332
3135.33	0.531146
3136.6	0.503018
3137.87	0.299336
3139.14	0.392092
3140.41	0.323129
3141.67	0.361975
3142.94	0.427884
3144.21	0.614937
3145.48	0.493673
3146.75	0.480379
3148.02	0.440871
3149.29	0.602744
