200.43	0.311618
202.244	0.34312
204.059	0.375776
205.873	0.701212
207.688	0.467481
209.501	0.865097
211.314	1.04244
213.127	0.586938
214.941	0.979717
216.753	0.159281
218.564	0.0423727
220.375	0.555445
222.186	0.560816
223.999	0.011035
225.809	0.211397
227.618	0.0492315
229.428	0.10404
231.236	-0.300438
233.045	-0.367229
234.855	0.289701
236.663	-0.161537
238.471	0.0883894
240.278	0.461312
242.085	-0.224236
243.891	-0.185348
245.698	0.480934
247.503	0.228599
249.309	0.0457067
251.116	0.125125
252.921	0.394585
254.725	0.0105352
256.529	0.39784
258.333	-0.274846
260.136	0.427743
261.939	-0.120662
263.742	-0.0651827
265.544	0.61778
267.346	0.14448
269.148	-0.088378
270.949	-0.0329189
272.75	0.214178
274.55	0.170419
276.351	0.149014
278.15	-0.0912304
279.95	0.533689
281.749	0.481701
283.548	0.355591
285.346	0.107994
287.144	0.676037
288.942	-0.0998793
290.739	0.300134
292.536	0.485298
294.333	-0.643856
296.129	0.046628
297.925	0.259545
299.721	-0.100638
301.514	0.207898
303.309	-0.153194
305.104	-0.0141201
306.898	-0.0670252
308.692	0.451905
310.486	-0.411136
312.279	-0.0815344
314.072	0.058919
315.862	0.320142
317.654	0.464121
319.446	0.395284
321.238	0.637371
323.029	-0.0495863
324.819	0.575411
326.608	0.269999
328.398	0.0594835
330.188	-0.319366
331.977	0.78306
333.766	-0.24488
335.553	0.662824
337.341	0.395679
339.129	0.269922
340.917	0.668689
342.704	0.110031
344.489	0.387975
346.275	0.403406
348.062	0.300077
349.845	0.0539999
351.631	0.428579
353.416	0.0387897
355.201	-0.208749
356.984	0.281701
358.768	0.269834
360.552	0.256749
362.333	0.242665
364.116	0.418006
365.899	0.425961
367.68	-0.0179358
369.462	-0.10621
371.243	0.20746
373.023	0.212096
374.804	0.263549
376.585	0.503723
378.363	0.012846
380.143	-0.452647
381.923	0.119377
383.7	0.738767
385.479	0.347841
387.256	0.404936
389.034	0.651011
390.812	0.357745
392.588	-0.310427
394.365	-0.203021
396.14	0.44482
397.916	0.223804
399.691	0.519246
401.467	0.391453
403.24	0.5683
405.015	0.274619
406.788	0.402876
408.563	0.319138
410.335	0.14114
412.109	0.620312
413.88	0.231478
415.654	0.0310841
417.424	-0.168592
419.197	1.01683
420.967	0.0669584
422.739	0.337192
424.508	0.137223
426.279	0.00673866
428.048	0.0631905
429.819	0.189536
431.587	0.573936
433.356	0.0432568
435.124	0.803693
436.891	-0.00839043
438.66	0.164557
440.426	0.218697
442.194	0.223905
443.96	0.156612
445.725	0.251523
447.492	0.368435
449.257	0.344313
451.021	-0.006814
452.787	-0.240349
454.551	0.179776
456.314	-0.309784
458.079	0.482115
459.842	-0.239785
461.604	-0.0996513
463.368	0.227653
465.13	-0.140089
466.891	-0.365682
468.654	0.294365
470.415	0.212616
472.175	-0.0315208
473.935	0.3054
475.696	0.501139
477.456	0.601583
479.215	0.723411
480.973	0.867438
482.733	0.522448
484.491	0.434786
486.249	0.162596
488.006	0.591481
489.765	0.603099
491.522	0.429011
493.278	0.04498
495.034	0.478935
496.789	0.702919
498.544	0.481827
500.301	0.166064
502.056	-0.103969
503.81	0.446792
505.564	0.527102
507.317	0.794237
509.071	1.06001
510.825	0.947779
512.578	0.716177
514.33	0.506558
516.082	0.64848
517.833	0.742049
519.585	0.646439
521.335	0.785087
523.086	0.406426
524.836	0.333053
526.586	0.846175
528.335	0.678815
530.085	0.417764
531.835	-0.0776396
533.584	0.503497
535.332	0.404367
537.08	0.257262
538.827	0.505941
540.574	0.706254
542.321	0.509288
544.068	0.800934
545.814	0.812979
547.56	-0.0799809
549.305	0.350723
551.05	0.641715
552.795	0.168914
554.54	0.806404
556.282	0.404112
558.025	-0.043149
559.769	0.570688
561.512	0.677556
563.255	0.830829
564.997	0.248935
566.739	0.0819063
568.481	0.26019
570.223	0.39341
571.964	0.413158
573.705	0.205114
575.443	0.365827
577.183	0.826535
578.923	0.347712
580.663	0.0529575
582.402	0.309508
584.141	0.335895
585.879	0.24631
587.615	0.224459
589.353	0.523514
591.09	-0.2597
592.828	0.0149031
594.564	-0.515924
596.299	0.287686
598.035	-0.0360909
599.771	-0.153137
601.506	0.580185
603.242	-0.343863
604.974	0.363566
606.709	0.471647
608.443	0.211355
610.177	0.203662
611.908	0.0129118
613.642	0.35041
615.374	0.550773
617.105	0.728268
618.837	0.401283
620.569	0.348219
622.3	0.133867
624.03	0.19328
625.761	0.298248
627.491	0.312751
629.219	0.443233
630.949	-0.177051
632.677	0.254303
634.406	-0.203308
636.135	0.571326
637.861	1.20745
639.59	0.3572
641.318	1.0101
643.043	0.884711
644.77	0.0296202
646.495	0.359229
648.222	0.440024
649.948	0.273819
651.672	0.702139
653.398	0.384403
655.121	1.00222
656.846	0.553311
658.569	1.01622
660.293	0.452918
662.015	0.777689
663.738	0.437932
665.46	0.849897
667.183	1.1001
668.903	0.297498
670.626	0.959275
672.346	0.387619
674.067	1.10014
675.787	0.211524
677.508	0.83675
679.226	0.154276
680.947	0.986836
682.665	0.622658
684.385	0.532132
686.102	0.669827
687.821	0.368406
689.538	0.618671
691.254	0.776096
692.972	1.2784
694.688	0.950711
696.406	1.08266
698.121	0.937091
699.835	0.330147
701.552	0.297619
703.266	0.47108
704.98	0.597681
706.695	1.32026
708.409	1.30749
710.121	1.72967
711.836	1.07475
713.548	1.0611
715.26	1.02442
716.973	1.23888
718.685	1.7496
720.396	0.664206
722.108	1.4709
723.818	0.615344
725.528	1.80713
727.238	1.56559
728.949	0.960965
730.658	1.37721
732.367	0.954267
734.075	1.61797
735.785	1.55709
737.493	1.5193
739.2	1.43716
740.907	1.53648
742.614	0.983653
744.322	0.950652
746.028	1.93175
747.734	0.686435
749.439	1.42237
751.144	1.2373
752.849	1.30097
754.555	1.77099
756.26	1.56767
757.963	1.81609
759.667	1.1426
761.37	1.37118
763.073	1.71347
764.775	0.588325
766.477	2.2849
768.179	1.87913
769.883	1.60646
771.584	1.85171
773.285	1.98242
774.986	1.86387
776.686	2.17547
778.386	2.46582
780.085	2.50913
781.785	1.73925
783.484	2.14588
785.182	2.14415
786.881	2.04944
788.579	2.01938
790.276	2.05377
791.974	1.83666
793.671	1.55049
795.367	2.05408
797.064	1.52091
798.76	2.2289
800.456	2.08257
802.151	2.34286
803.846	1.79406
805.541	2.05486
807.234	1.82027
808.928	2.34825
810.622	2.06643
812.315	2.18767
814.008	2.26329
815.701	2.47283
817.394	2.21224
819.086	2.57794
820.778	2.07231
822.468	2.72818
824.159	2.24676
825.85	2.41367
827.541	2.18174
829.231	2.73225
830.921	2.21698
832.609	2.30603
834.298	2.04077
835.987	1.77628
837.676	2.40404
839.364	1.57988
841.051	1.55759
842.738	2.18186
844.426	1.95669
846.113	2.06736
847.798	2.22464
849.484	2.18326
851.171	2.0549
852.857	1.90591
854.54	2.11661
856.226	1.94578
857.911	1.66105
859.593	1.28413
861.278	2.23338
862.961	1.06435
864.645	1.29031
866.327	0.929377
868.01	1.85292
869.692	1.40063
871.373	1.94038
873.055	1.60022
874.735	1.35014
876.416	0.761496
878.097	1.39149
879.776	1.36694
881.457	1.47747
883.135	1.15838
884.815	1.17684
886.495	1.93873
888.172	1.38999
889.851	1.24602
891.528	1.59655
893.206	1.04443
894.882	1.45959
896.56	1.69307
898.237	1.5882
899.912	1.23586
901.589	1.71249
903.263	1.04617
904.94	1.05176
906.614	1.4147
908.289	1.50984
909.962	1.60568
911.635	0.901354
913.31	1.5326
914.982	1.56352
916.656	1.28386
918.328	1.82469
920.001	1.14681
921.672	1.15651
923.345	1.43253
925.015	1.40055
926.685	0.796397
928.357	0.878595
930.026	1.49158
931.698	1.53138
933.366	1.37292
935.035	1.10441
936.705	1.27747
938.373	1.40726
940.041	0.920712
941.71	1.86914
943.377	1.09763
945.044	0.5022
946.712	1.42863
948.378	1.07305
950.044	1.55429
951.709	1.46039
953.376	1.27835
955.041	0.745128
956.706	1.4495
958.372	1.34125
960.036	0.948811
961.699	0.623672
963.362	0.519035
965.027	1.00988
966.69	1.07819
968.352	1.60839
970.014	1.58328
971.676	0.716723
973.339	1.35471
975	1.021
976.661	1.59584
978.322	1.28759
979.982	1.27861
981.642	1.26925
983.303	1.51314
984.962	2.08711
986.621	2.06111
988.28	1.81192
989.938	0.920331
991.596	1.06775
993.254	1.28107
994.911	1.62669
996.57	1.39842
998.227	1.28064
999.884	2.13235
1001.54	1.57318
1003.2	1.71852
1004.85	1.24755
1006.51	2.18355
1008.16	1.14197
1009.82	1.22134
1011.47	1.25719
1013.12	1.14005
1014.78	1.26439
1016.43	1.69548
1018.08	1.27333
1019.74	1.26794
1021.39	1.19802
1023.04	1.4353
1024.69	0.952285
1026.34	1.5189
1028	1.27699
1029.65	1.36221
1031.3	0.987517
1032.95	1.81217
1034.6	1.41243
1036.25	1.18617
1037.9	1.48224
1039.54	1.23355
1041.19	1.96469
1042.84	1.43547
1044.49	0.843472
1046.14	1.44847
1047.78	1.25165
1049.43	1.29543
1051.08	1.10161
1052.72	0.821666
1054.37	1.30252
1056.02	0.892484
1057.66	0.7646
1059.31	1.63635
1060.95	1.22472
1062.6	0.812246
1064.24	0.855496
1065.88	1.07162
1067.53	0.547611
1069.17	1.17444
1070.81	0.670858
1072.45	0.905601
1074.1	1.48778
1075.74	1.37649
1077.38	1.17989
1079.02	0.767781
1080.66	0.703435
1082.3	0.660789
1083.94	0.834135
1085.58	0.91913
1087.22	0.742038
1088.86	0.649714
1090.5	1.20488
1092.14	1.06614
1093.78	1.05671
1095.42	1.15533
1097.05	1.23305
1098.69	1.11817
1100.33	0.897591
1101.96	1.26015
1103.6	1.02194
1105.24	1.12933
1106.87	1.64595
1108.51	0.592296
1110.14	1.17198
1111.78	0.417193
1113.41	0.671146
1115.05	1.0953
1116.68	0.488547
1118.31	0.461539
1119.95	0.585186
1121.58	1.26637
1123.21	0.492607
1124.85	0.725992
1126.48	0.40398
1128.11	0.360875
1129.74	1.40891
1131.37	0.789726
1133	1.26121
1134.63	0.898836
1136.26	0.386319
1137.89	1.04821
1139.52	0.555063
1141.15	0.595075
1142.78	1.03997
1144.41	0.0555582
1146.04	-0.223781
1147.66	0.925804
1149.29	0.328532
1150.92	0.669245
1152.55	0.307081
1154.17	0.370564
1155.8	0.710299
1157.43	0.62417
1159.05	0.261935
1160.68	0.474836
1162.3	0.11466
1163.93	0.138197
1165.55	0.502419
1167.17	0.483699
1168.8	0.145076
1170.42	0.570155
1172.05	-0.00545025
1173.67	-0.00884247
1175.29	1.02618
1176.91	0.44795
1178.54	0.357997
1180.16	-0.196837
1181.78	-0.0308828
1183.4	0.072072
1185.02	-0.24763
1186.64	-0.229908
1188.26	0.0184183
1189.88	0.83357
1191.5	0.339764
1193.12	0.749804
1194.74	0.968916
1196.36	0.76812
1197.97	0.589712
1199.59	0.455264
1201.21	0.636772
1202.83	0.507404
1204.44	1.02768
1206.06	0.506539
1207.68	1.13431
1209.29	1.32419
1210.91	0.616394
1212.52	1.03317
1214.14	0.697187
1215.75	1.04655
1217.37	0.769421
1218.98	1.34381
1220.59	1.02422
1222.21	0.498575
1223.82	1.32192
1225.43	1.52434
1227.05	1.19008
1228.66	1.93313
1230.27	1.74654
1231.88	1.91274
1233.49	1.06744
1235.1	1.1329
1236.72	2.19172
1238.33	1.61876
1239.94	1.56323
1241.55	1.96292
1243.16	2.01075
1244.76	0.816269
1246.37	1.64847
1247.98	1.56916
1249.59	1.55114
1251.2	1.8431
1252.8	1.94904
1254.41	2.01434
1256.02	1.60506
1257.62	2.02447
1259.23	2.25907
1260.84	1.77029
1262.44	1.53016
1264.05	2.36709
1265.66	2.10589
1267.26	2.23758
1268.86	1.58048
1270.47	1.64782
1272.07	2.41903
1273.67	2.69145
1275.28	2.23718
1276.88	1.78211
1278.48	2.71434
1280.09	2.63055
1281.69	2.29812
1283.29	1.75921
1284.89	1.71761
1286.49	2.19377
1288.09	2.40211
1289.69	2.11542
1291.29	2.65588
1292.89	1.79118
1294.49	2.61991
1296.09	2.60011
1297.69	2.16567
1299.29	1.85367
1300.89	2.03529
1302.49	1.96811
1304.08	1.92061
1305.68	2.7359
1307.28	2.60422
1308.88	1.87754
1310.47	2.54595
1312.07	2.53779
1313.66	2.95994
1315.26	2.50377
1316.85	2.96822
1318.45	2.98374
1320.04	2.24482
1321.64	2.17832
1323.23	2.13066
1324.83	2.14222
1326.42	2.39586
1328.01	2.01972
1329.61	2.25255
1331.2	2.46625
1332.79	1.91413
1334.38	2.23347
1335.97	2.27165
1337.56	2.45159
1339.16	1.76391
1340.75	1.94154
1342.34	1.83492
1343.93	1.68627
1345.52	2.25953
1347.11	1.92916
1348.7	1.78156
1350.29	1.79687
1351.87	1.85482
1353.46	1.61498
1355.05	1.51657
1356.64	1.4186
1358.22	1.34025
1359.81	1.64042
1361.4	1.14086
1362.98	0.960155
1364.57	1.5568
1366.16	1.77441
1367.74	1.39518
1369.33	1.49525
1370.91	1.55688
1372.5	0.784164
1374.08	1.38559
1375.67	1.11218
1377.25	0.978142
1378.83	1.00282
1380.41	1.1061
1382	1.20808
1383.58	0.85133
1385.16	1.38835
1386.74	1.36812
1388.33	1.66576
1389.91	1.11028
1391.49	1.64746
1393.07	0.65762
1394.65	1.4338
1396.23	0.761955
1397.81	0.763777
1399.39	1.16095
1400.97	1.29935
1402.55	0.942135
1404.13	1.21834
1405.7	0.703818
1407.28	0.803292
1408.86	1.02205
1410.44	0.78687
1412.01	1.18369
1413.59	0.908523
1415.17	1.10625
1416.74	0.770484
1418.32	0.690918
1419.89	1.1436
1421.47	1.20306
1423.04	0.594733
1424.62	1.16911
1426.19	0.524377
1427.77	1.41538
1429.34	1.47949
1430.91	1.14907
1432.49	1.6244
1434.06	2.05918
1435.63	2.09989
1437.2	1.92449
1438.78	1.76959
1440.35	1.79264
1441.92	1.62014
1443.49	1.52696
1445.06	2.37756
1446.63	2.42258
1448.2	2.23188
1449.77	2.27735
1451.34	2.30364
1452.91	2.76318
1454.48	2.2791
1456.05	2.73921
1457.62	2.21485
1459.18	2.20074
1460.75	2.65711
1462.32	2.38335
1463.89	1.97034
1465.45	1.79244
1467.02	0.966099
1468.59	1.3975
1470.15	0.965872
1471.72	1.08494
1473.28	0.75386
1474.85	0.600132
1476.41	1.05465
1477.98	1.09746
1479.54	1.33622
1481.1	0.869226
1482.67	1.00978
1484.23	1.07178
1485.79	0.330219
1487.36	1.13552
1488.92	0.842681
1490.48	0.509237
1492.04	1.11268
1493.61	0.501932
1495.17	0.78825
1496.73	0.761052
1498.29	0.247203
1499.85	0.804054
1501.41	0.389942
1502.97	0.734148
1504.53	0.477898
1506.09	0.706315
1507.65	0.837027
1509.2	0.0971565
1510.76	0.477057
1512.32	0.257798
1513.88	0.481396
1515.43	0.781453
1516.99	0.582165
1518.55	0.518303
1520.1	0.570086
1521.66	0.928115
1523.22	0.520497
1524.77	0.323088
1526.33	0.601906
1527.88	0.860078
1529.44	0.166257
1530.99	0.651582
1532.54	0.605104
1534.1	0.843618
1535.65	0.874485
1537.21	0.603882
1538.76	0.542131
1540.31	0.311149
1541.86	0.740043
1543.42	0.528132
1544.97	1.1061
1546.52	0.536973
1548.07	0.944521
1549.62	1.10752
1551.17	1.12055
1552.72	0.572852
1554.27	1.24188
1555.82	1.07074
1557.37	1.05084
1558.92	1.01419
1560.47	0.66225
1562.02	0.871508
1563.56	1.64153
1565.11	0.844961
1566.66	1.13064
1568.21	1.30418
1569.75	1.44005
1571.3	1.22088
1572.85	1.87877
1574.39	1.41647
1575.94	1.83156
1577.49	1.42546
1579.03	1.71049
1580.57	1.86549
1582.12	2.09604
1583.66	1.71108
1585.21	1.92465
1586.75	2.19498
1588.3	1.97937
1589.84	1.9879
1591.38	1.95855
1592.92	1.87251
1594.47	1.71118
1596.01	1.47483
1597.55	1.76351
1599.09	1.75306
1600.63	1.87461
1602.17	2.42842
1603.71	1.6871
1605.25	1.56435
1606.79	1.72206
1608.33	1.46441
1609.87	0.884989
1611.41	1.35582
1612.95	1.71168
1614.49	2.17844
1616.03	1.21868
1617.57	2.00377
1619.1	1.42152
1620.64	1.66525
1622.18	1.81658
1623.72	2.00614
1625.25	1.84003
1626.79	1.65451
1628.32	2.01035
1629.86	2.06528
1631.39	2.04428
1632.93	2.20966
1634.46	1.70311
1636	1.86957
1637.53	2.6709
1639.07	2.24184
1640.6	2.48405
1642.13	3.02351
1643.67	2.42543
1645.2	2.27334
1646.73	2.49238
1648.26	2.89657
1649.8	2.5764
1651.33	3.07418
1652.86	2.36719
1654.39	2.83006
1655.92	2.64459
1657.45	2.57035
1658.98	2.86578
1660.51	2.71523
1662.04	2.85928
1663.57	3.16821
1665.1	2.58943
1666.63	2.87932
1668.16	2.22938
1669.68	2.31908
1671.21	2.5945
1672.74	2.6683
1674.27	2.74257
1675.79	2.00651
1677.32	2.07986
1678.85	1.80252
1680.37	1.8737
1681.9	2.36663
1683.42	1.42629
1684.95	1.11114
1686.47	1.34687
1688	1.14287
1689.52	1.5623
1691.05	1.21254
1692.57	1.43051
1694.09	1.35554
1695.62	1.18905
1697.14	1.00422
1698.66	0.947085
1700.18	1.05385
1701.71	1.05054
1703.23	1.10135
1704.75	0.568807
1706.27	0.69171
1707.79	0.814119
1709.31	0.554793
1710.83	0.731523
1712.35	0.581724
1713.87	0.377961
1715.39	0.735768
1716.91	0.550288
1718.43	0.11196
1719.95	0.88415
1721.47	0.789154
1722.99	0.316215
1724.5	0.475439
1726.02	0.329531
1727.54	0.328954
1729.06	0.221296
1730.57	0.241649
1732.09	0.564196
1733.61	0.633863
1735.12	0.45941
1736.64	0.407881
1738.15	0.00430202
1739.67	0.350557
1741.18	0.290064
1742.7	0.271644
1744.21	0.324944
1745.72	0.232388
1747.24	0.077817
1748.75	-0.057724
1750.26	0.266686
1751.77	0.0098772
1753.29	0.0436125
1754.8	0.298832
1756.31	0.0992136
1757.82	-0.11173
1759.33	0.288465
1760.84	0.348533
1762.36	0.397711
1763.87	-0.395186
1765.38	-0.51458
1766.89	-0.0592546
1768.4	0.115738
1769.91	0.0105639
1771.41	0.120487
1772.92	-0.0539875
1774.43	0.0808878
1775.94	-0.0334711
1777.45	-0.000944138
1778.95	-0.27339
1780.46	0.237615
1781.97	-0.139178
1783.48	0.132639
1784.98	-0.0266066
1786.49	-0.23947
1787.99	-0.0496435
1789.5	-0.118069
1791.01	0.397979
1792.51	0.144427
1794.01	0.0555658
1795.52	0.523521
1797.02	-0.0273209
1798.53	0.371644
1800.03	0.0991011
1801.53	-0.154912
1803.04	0.349257
1804.54	0.0548563
1806.04	0.287098
1807.54	-0.0879688
1809.05	-0.00960445
1810.55	0.224825
1812.05	0.0410166
1813.55	0.190946
1815.05	0.049427
1816.55	-0.117011
1818.05	0.264731
1819.55	0.0246429
1821.05	0.0989637
1822.55	0.0770416
1824.05	0.242268
1825.55	0.0907822
1827.05	0.247304
1828.55	0.00129128
1830.04	0.0648546
1831.54	0.128942
1833.04	0.165696
1834.54	0.383208
1836.03	0.272705
1837.53	0.310538
1839.03	0.436938
1840.52	0.0600395
1842.02	-0.228181
1843.51	0.121834
1845.01	0.323709
1846.5	-0.0679255
1848	0.255645
1849.49	0.395871
1850.99	0.338745
1852.48	0.113317
1853.97	0.240578
1855.47	0.0507431
1856.96	0.0562658
1858.45	0.272394
1859.94	0.422813
1861.44	0.0227804
1862.93	0.0386581
1864.42	-0.070466
1865.91	0.0618896
1867.4	0.0347042
1868.89	0.320248
1870.38	-0.233938
1871.87	-0.164892
1873.36	-0.0703983
1874.85	0.0835218
1876.34	0.3044
1877.83	0.126927
1879.32	-0.102835
1880.81	0.0737772
1882.3	0.499052
1882.57	0.590537
1884.07	0.310336
1885.56	0.0993004
1887.06	0.253421
1888.55	0.598408
1890.04	-0.0832558
1891.54	0.106148
1893.03	0.140409
1894.52	0.158924
1896.02	0.178831
1897.51	0.390786
1899	0.0460453
1900.49	0.135191
1901.98	0.344621
1903.47	-0.108512
1904.96	0.184881
1906.45	0.181935
1907.94	0.161615
1909.43	-0.118478
1910.92	0.452676
1912.41	0.382499
1913.9	0.486301
1915.39	0.659493
1916.88	0.260178
1918.37	0.397845
1919.85	0.171165
1921.34	0.30829
1922.83	-0.19496
1924.32	0.393484
1925.8	0.0999641
1927.29	0.153646
1928.78	0.554198
1930.26	0.244804
1931.75	0.419483
1933.23	0.194529
1934.72	0.521952
1936.2	0.103594
1937.69	0.272497
1939.17	0.527163
1940.66	0.43645
1942.14	0.139565
1943.63	-0.0525751
1945.11	0.34248
1946.59	0.20321
1948.07	0.391224
1949.56	0.319999
1951.04	-0.0792131
1952.52	0.329918
1954	0.0501995
1955.48	0.526856
1956.96	0.367893
1958.45	0.175437
1959.93	-0.239153
1961.41	0.0844078
1962.89	0.0650663
1964.37	0.42248
1965.85	0.24823
1967.32	0.518507
1968.8	0.78784
1970.28	0.0819893
1971.76	0.0942488
1973.24	0.15764
1974.72	0.221032
1976.19	0.0458889
1977.67	0.535385
1979.15	0.122212
1980.63	0.219839
1982.1	0.368167
1983.58	0.0573874
1985.05	0.39172
1986.53	0.0978041
1988	0.0246401
1989.48	0.459883
1990.95	-0.120187
1992.43	0.299147
1993.9	0.397779
1995.38	0.0408192
1996.85	0.123717
1998.32	0.392281
1999.8	0.407011
2001.27	0.640526
2002.74	0.485422
2004.22	0.279779
2005.69	0.361107
2007.16	0.510435
2008.63	0.155411
2010.1	0.0538607
2011.57	0.205302
2013.04	0.558712
2014.51	0.524547
2015.98	0.153176
2017.45	0.369829
2018.92	0.417438
2020.39	0.296472
2021.86	0.326644
2023.33	0.155686
2024.8	0.371502
2026.27	0.118623
2027.74	0.118719
2029.2	0.170482
2030.67	0.374452
2032.14	0.445161
2033.61	0.298117
2035.07	0.55398
2036.54	0.456868
2038.01	0.123949
2039.47	0.530019
2040.94	-0.190076
2042.4	0.132338
2043.87	0.0519438
2045.33	0.510776
2046.8	0.179455
2048.26	0.370249
2049.72	0.594625
2051.19	0.160653
2052.65	0.467034
2054.12	0.21524
2055.58	0.231696
2057.04	0.415476
2058.5	0.497295
2059.97	0.275739
2061.43	0.543021
2062.89	0.895067
2064.35	0.44012
2065.81	0.491067
2067.27	0.223041
2068.73	0.275294
2070.19	0.614003
2071.65	0.515131
2073.11	0.651819
2074.57	0.754603
2076.03	0.638156
2077.49	0.773957
2078.95	0.319974
2080.41	0.926439
2081.87	0.522056
2083.32	0.302344
2084.78	0.0988922
2086.24	0.820088
2087.7	0.615342
2089.15	0.914557
2090.61	0.558199
2092.07	0.605049
2093.52	0.903445
2094.98	0.94971
2096.43	0.794312
2097.89	1.12416
2099.34	1.08474
2100.8	0.89458
2102.25	0.771784
2103.71	1.00063
2105.16	1.34729
2106.61	0.660704
2108.07	0.709385
2109.52	1.35862
2110.97	1.32348
2112.43	1.28702
2113.88	1.09901
2115.33	1.44214
2116.78	1.25183
2118.23	1.32795
2119.68	1.30574
2121.13	1.50117
2122.59	1.78134
2124.04	1.53226
2125.49	1.69841
2126.94	1.4829
2128.39	1.51506
2129.83	2.00974
2131.28	1.32673
2132.73	2.18302
2134.18	2.04576
2135.63	1.97565
2137.08	1.95677
2138.53	1.7746
2139.97	2.51993
2141.42	2.02746
2142.87	2.5447
2144.31	2.3682
2145.76	2.37375
2147.21	2.37896
2148.65	2.51597
2150.1	2.78463
2151.54	2.68773
2152.99	2.88796
2154.43	2.73931
2155.88	2.97122
2157.32	2.50745
2158.77	2.44209
2160.21	2.36162
2161.65	2.82988
2163.1	2.81977
2164.54	3.01044
2165.98	2.85365
2167.43	3.29463
2168.87	2.5878
2170.31	2.99262
2171.75	3.14576
2173.19	3.24677
2174.64	3.27965
2176.07	3.46154
2177.52	3.04505
2178.96	2.81243
2180.4	2.89682
2181.84	2.5499
2183.28	2.86871
2184.72	3.1214
2186.15	2.69219
2187.59	2.82858
2189.03	2.88185
2190.47	2.81859
2191.91	2.43868
2193.35	2.67389
2194.78	2.64124
2196.22	2.34024
2197.66	2.43659
2199.09	2.51435
2200.53	2.00937
2201.97	2.48452
2203.4	2.17999
2204.84	1.92675
2206.27	1.708
2207.71	1.57279
2209.14	1.81835
2210.58	2.02975
2212.01	2.04135
2213.45	1.98603
2214.88	1.56731
2216.31	1.94208
2217.75	1.52574
2219.18	1.91909
2220.61	2.0328
2222.05	1.58621
2223.48	1.5675
2224.91	1.28392
2226.34	1.41034
2227.78	1.07458
2229.21	1.13236
2230.64	1.14006
2232.07	0.967292
2233.5	1.12255
2234.93	1.71969
2236.36	0.961021
2237.79	1.23356
2239.22	0.920267
2240.65	0.870138
2242.08	1.18056
2243.5	0.986556
2244.93	1.05383
2246.36	0.957331
2247.79	0.745141
2249.22	0.889657
2250.64	0.901558
2252.07	0.667611
2253.5	0.628457
2254.92	0.914612
2256.35	0.454941
2257.78	0.679524
2259.2	0.630854
2260.63	0.601144
2262.05	0.768462
2263.48	0.807499
2264.9	0.473052
2266.33	1.21107
2267.75	0.72892
2269.18	0.505869
2270.6	0.656369
2272.02	0.757625
2273.45	0.663335
2274.87	0.471345
2276.29	0.654224
2277.71	0.837358
2279.14	0.401148
2280.56	0.584313
2281.98	0.653276
2283.4	0.738511
2284.82	0.660641
2286.24	0.15854
2287.66	0.391248
2289.08	0.363171
2290.5	0.335439
2291.92	0.602192
2293.34	0.460425
2294.76	0.236699
2296.18	0.700193
2297.6	0.0668545
2299.02	0.0391889
2300.44	0.40503
2301.86	0.0991573
2303.27	0.367456
2304.69	0.307875
2306.11	0.395968
2307.53	0.483825
2308.94	0.160298
2310.36	0.477314
2311.78	0.251352
2313.19	0.140412
2314.61	-0.00314999
2316.02	0.0349612
2317.44	-0.0909615
2318.85	-0.2661
2320.27	0.547983
2321.68	-0.123276
2323.1	0.0286131
2324.51	0.37651
2325.92	0.425257
2327.34	0.950633
2328.75	1.06272
2330.16	0.269003
2331.58	0.135441
2332.99	0.365055
2334.4	0.0687876
2335.81	-0.11199
2337.23	-0.029953
2338.64	-0.0639095
2340.05	-0.115271
2341.46	0.14462
2342.87	-0.0721679
2344.28	0.0885029
2345.69	0.00338125
2347.1	-0.196032
2348.51	-0.182388
2349.92	0.22349
2351.33	0.00694561
2352.74	0.116508
2354.15	-0.150239
2355.55	-0.0910606
2356.96	-0.1951
2358.37	0.156449
2359.78	0.29615
2361.19	0.208432
2362.59	-0.0736613
2364	-0.12853
2365.41	-0.264213
2366.81	0.0207357
2368.22	0.273364
2369.62	-0.0703626
2371.03	0.151788
2372.44	0.00432301
2373.84	-0.206522
2375.24	0.0982037
2376.65	0.257512
2378.05	-0.114962
2379.46	-0.215152
2380.86	0.116799
2382.26	-0.0181794
2383.67	-0.137614
2385.07	-0.0490065
2386.47	-0.0401325
2387.88	-0.0304728
2389.28	0.0758862
2390.68	0.0557346
2392.08	0.0366621
2393.48	-0.204261
2394.89	0.478199
2396.29	0.0161057
2397.69	0.127034
2399.09	0.0318632
2400.49	-0.158144
2401.89	-0.030148
2403.29	-0.140374
2404.69	0.209569
2406.09	0.0188508
2407.48	-0.251888
2408.88	-0.0155592
2410.28	0.267804
2411.68	0.519405
2413.08	0.0272541
2414.48	-0.0834556
2415.87	0.139606
2417.27	0.0313849
2418.67	0.145614
2420.06	-0.135739
2421.46	0.0895858
2422.86	0.0136504
2424.25	0.143438
2425.65	0.241628
2427.04	0.134288
2428.44	0.0911031
2429.83	-0.0622883
2431.23	0.102136
2432.62	0.298598
2434.02	-0.140543
2435.41	0.515196
2436.81	0.375388
2438.2	0.13883
2439.59	0.520679
2440.99	0.377456
2442.38	0.281459
2443.77	0.280488
2445.16	-0.196478
2446.56	0.309789
2447.95	0.0706768
2449.34	0.211927
2450.73	0.163266
2452.12	-0.153929
2453.51	0.00444651
2454.9	0.448273
2456.29	0.0384135
2457.68	-0.0863891
2459.07	-0.0215254
2460.46	0.216768
2461.85	-0.257235
2463.24	-0.0994334
2464.63	-0.0686402
2466.02	0.0724158
2467.4	0.355335
2468.79	0.211948
2470.18	0.0842776
2471.57	0.287327
2472.95	0.111454
2474.34	-0.0176554
2475.73	0.135992
2477.12	0.131901
2478.5	0.127781
2479.89	0.249351
2481.27	0.214093
2482.66	0.0848188
2484.04	0.252749
2485.43	0.247539
2486.81	0.0225892
2488.2	0.0780439
2489.58	0.117124
2490.97	0.233804
2492.35	0.0553422
2493.73	-0.19937
2495.12	-0.126648
2496.5	-0.254458
2497.88	-0.133541
2499.27	0.250555
2500.65	0.092453
2502.03	0.134791
2503.41	0.145295
2504.79	0.108702
2506.17	0.0562315
2507.56	-0.0578904
2508.94	0.120447
2510.32	-0.0851274
2511.7	0.0478044
2513.08	0.0892105
2514.46	-0.0984206
2515.84	0.189458
2517.22	-0.0730071
2518.59	0.123946
2519.97	0.137474
2521.35	0.120195
2522.73	-0.126604
2524.11	0.327785
2525.49	0.415077
2526.86	0.136543
2528.24	0.315301
2529.62	0.160305
2530.99	-0.00828457
2532.37	0.159017
2533.75	0.0388083
2535.12	0.0103884
2536.5	0.103455
2537.88	-0.0623412
2539.25	-0.0922379
2540.63	0.135269
2542	-0.0930018
2543.38	-0.15396
2544.75	0.347109
2546.12	-0.0457253
2547.5	-0.0886083
2548.87	0.0209408
2550.24	0.267136
2551.62	0.0576711
2552.99	-0.122283
2554.36	-0.196887
2555.74	0.304289
2557.11	0.1677
2558.48	-0.257016
2559.85	0.395032
2561.22	0.137913
2562.59	0.0936093
2563.96	0.125599
2565.34	0.324664
2566.71	0.160251
2568.08	0.177771
2569.45	-0.0623546
2570.82	-0.0145197
2572.18	-0.148537
2573.55	0.12679
2574.92	-0.00708008
2576.29	-0.519968
2577.66	-0.0474586
2579.03	0.0306759
2580.4	-0.0886197
2581.77	0.125314
2583.13	0.111471
2584.5	-0.190609
2585.87	0.0681844
2587.23	-0.157977
2588.6	0.207126
2589.97	0.254032
2591.33	-0.259869
2592.7	0.0895677
2594.06	0.256383
2595.43	0.164744
2596.79	0.147939
2598.16	0.372488
2599.52	0.218483
2600.89	0.0647674
2602.25	0.0475883
2603.62	-0.0293603
2604.98	-0.0755863
2606.34	0.19515
2607.71	-0.152834
2609.07	0.116663
2610.43	-0.262869
2611.79	-0.116244
2613.16	0.0592079
2614.52	-0.111831
2615.88	-0.0276451
2617.24	-0.0183625
2618.6	0.0663166
2619.96	0.0467868
2621.32	0.0279412
2622.68	0.263588
2624.04	-0.232542
2625.4	-0.0267348
2626.76	-0.164402
2628.12	0.383276
2629.48	0.066278
2630.84	0.0620193
2632.2	-0.120716
2633.56	0.350355
2634.92	0.108248
2636.28	0.0296297
2637.63	-0.0192385
2638.99	-0.0827842
2640.35	-0.116503
2641.71	0.0422359
2643.06	0.127125
2644.42	0.0201287
2645.77	0.252503
2647.13	0.115636
2648.49	-0.00690317
2649.84	-0.14466
2651.2	0.143576
2652.55	-0.171133
2653.91	0.0871515
2655.26	0.037818
2656.62	0.0481229
2657.97	-0.0283885
2659.33	0.159273
2660.68	0.0400472
2662.03	-0.0499754
2663.39	-0.0673995
2664.74	0.00206423
2666.09	-0.0459065
2667.44	0.0660911
2668.8	-0.127941
2670.15	-0.0304341
2671.5	0.125547
2672.85	0.238293
2674.2	0.0174689
2675.55	0.116701
2676.91	-0.10283
2678.26	-0.292617
2679.61	0.0694075
2680.96	-0.0897021
2682.31	0.1292
2683.66	0.073679
2685	0.135013
2686.35	0.240313
2687.7	0.17132
2689.05	0.333508
2690.4	-0.101017
2691.75	0.2032
2693.1	-0.132471
2694.44	0.140363
2695.79	0.166399
2697.14	0.453712
2698.49	0.22069
2699.83	-0.0831223
2701.18	-0.0378952
2702.52	0.124521
2703.87	0.23
2705.22	0.147549
2706.56	0.282634
2707.91	0.286999
2709.25	0.305514
2710.6	-0.11196
2711.94	0.0656533
2713.29	-0.0473762
2714.63	0.0720444
2715.97	0.307797
2717.32	-0.314561
2718.66	0.0954399
2720.01	0.0251174
2721.35	-0.162057
2722.69	-0.0294867
2724.03	0.43747
2725.38	0.30727
2726.72	0.395055
2728.06	0.162356
2729.4	0.409709
2730.74	0.191263
2732.08	0.205618
2733.42	0.540079
2734.76	0.234631
2736.1	0.263933
2737.44	0.176997
2738.78	0.220929
2740.12	-0.0116696
2741.46	0.322421
2742.8	0.394142
2744.14	0.0437412
2745.48	-0.0454783
2746.82	0.286117
2748.16	-0.122995
2749.49	-0.0239129
2750.83	0.118769
2752.17	0.102088
2753.51	0.317504
2754.84	0.11278
2756.18	-0.424822
2757.52	0.109505
2758.85	0.354259
2760.19	-0.0520263
2761.53	-0.0236259
2762.86	0.424798
2764.2	0.32362
2765.53	0.251361
2766.87	0.164222
2768.2	0.0184183
2769.54	0.406532
2770.87	0.0126162
2772.2	-0.0209875
2773.54	0.0311337
2774.87	-0.378612
2776.2	-0.081902
2777.54	-0.116385
2778.87	0.223531
2780.2	0.319124
2781.53	0.0702252
2782.87	0.0369868
2784.2	-0.010602
2785.53	-0.158474
2786.86	-0.220048
2788.19	-0.0950322
2789.52	0.0448356
2790.85	-0.143579
2792.18	0.154924
2793.51	-0.389728
2794.84	-0.0909019
2796.17	0.0217376
2797.5	0.219526
2798.83	0.116832
2800.16	0.299274
2801.49	0.124681
2802.82	0.0783997
2804.15	0.0604243
2805.47	-0.071866
2806.8	0.29362
2808.13	-0.138433
2809.46	-0.101215
2810.78	0.106384
2812.11	-0.0689211
2813.44	0.111553
2814.76	0.307323
2816.09	0.206619
2817.42	-0.0206294
2818.74	0.333746
2820.07	0.00778103
2821.39	-0.03511
2822.72	0.57328
2824.04	0.0191112
2825.37	-0.407621
2826.69	-0.0269356
2828.02	0.155819
2829.34	0.0558848
2830.66	0.409357
2831.99	-0.128813
2833.31	0.437077
2834.63	0.110911
2835.96	0.322151
2837.28	0.405498
2838.6	-0.00667667
2839.92	0.740806
2841.24	1.04972
2842.57	0.779349
2843.89	1.13152
2845.21	1.37124
2846.53	1.00385
2847.85	1.49888
2849.17	1.4286
2850.49	1.78206
2851.81	2.05022
2853.13	1.83732
2854.45	1.60996
2855.77	1.59442
2857.09	1.83315
2858.41	2.1001
2859.72	2.18336
2861.04	2.30877
2862.36	2.40558
2863.68	2.45962
2865	2.35817
2866.31	2.62352
2867.63	2.64923
2868.95	3.38037
2870.26	3.56186
2871.58	3.54611
2872.9	3.54416
2874.21	3.66821
2875.53	4.00234
2876.84	3.61701
2878.16	3.99104
2879.47	4.20969
2880.79	4.02083
2882.1	3.65041
2883.42	3.81504
2884.73	3.84018
2886.05	3.96417
2887.36	4.18641
2888.67	4.0292
2889.99	3.66083
2891.3	3.53022
2892.61	4.35212
2893.92	4.24854
2895.24	4.14546
2896.55	4.33726
2897.86	4.33415
2899.17	4.3881
2900.48	4.05115
2901.79	4.58201
2903.11	5.07105
2904.42	4.42723
2905.73	5.28035
2907.04	5.60258
2908.35	5.32424
2909.66	5.63439
2910.97	5.60941
2912.27	5.93431
2913.58	6.34244
2914.89	6.95902
2916.2	6.59354
2917.51	7.0101
2918.82	7.32731
2920.13	6.81898
2921.43	7.65401
2922.74	7.55355
2924.05	7.88812
2925.35	7.98641
2926.66	8.11339
2927.97	7.84897
2929.27	8.5347
2930.58	8.26908
2931.89	8.22655
2933.19	8.51918
2934.5	8.644
2935.8	8.47545
2937.11	8.30712
2938.41	8.27876
2939.72	8.02715
2941.02	7.97181
2942.32	7.62403
2943.63	7.20773
2944.93	7.70157
2946.24	7.03631
2947.54	7.0568
2948.84	6.44711
2950.14	6.43771
2951.45	6.35624
2952.75	6.24459
2954.05	6.22936
2955.35	6.11573
2956.65	5.61127
2957.95	6.21488
2959.26	5.92573
2960.56	5.51339
2961.86	5.59344
2963.16	5.30962
2964.46	5.16511
2965.76	5.39814
2967.06	5.10956
2968.36	5.01612
2969.66	4.85148
2970.96	4.86949
2972.25	4.47981
2973.55	3.97769
2974.85	4.13686
2976.15	4.22501
2977.45	4.17097
2978.74	3.56598
2980.04	3.90249
2981.34	3.39313
2982.64	3.33369
2983.93	3.28871
2985.23	3.20272
2986.52	3.14642
2987.82	2.76842
2989.12	2.65838
2990.41	2.78749
2991.71	2.74742
2993	2.25655
2994.3	1.87696
2995.59	2.00213
2996.89	2.08436
2998.18	2.02597
2999.48	1.92578
3000.77	1.88227
3002.06	1.29272
3003.36	1.54464
3004.65	1.05406
3005.94	1.33371
3007.23	1.20661
3008.53	1.13477
3009.82	1.22993
3011.11	0.79329
3012.4	1.09683
3013.69	0.967449
3014.99	0.880463
3016.28	0.487783
3017.57	0.806276
3018.86	0.540469
3020.15	0.497504
3021.44	0.801614
3022.73	0.257313
3024.02	1.04511
3025.31	0.347383
3026.6	0.717212
3027.89	0.46414
3029.18	0.419914
3030.46	0.0593371
3031.75	0.377129
3033.04	0.543736
3034.33	0.724297
3035.62	0.531713
3036.9	-0.0203733
3038.19	0.377249
3039.48	0.497165
3040.76	0.0381188
3042.05	0.375491
3043.34	0.4789
3044.62	0.295402
3045.91	0.387292
3047.19	0.399052
3048.48	0.48122
3049.77	0.442453
3051.05	0.596194
3052.34	0.627851
3053.62	0.659491
3054.9	0.854182
3056.19	0.474967
3057.47	0.394913
3058.76	0.382328
3060.04	0.995821
3061.32	0.465927
3062.61	0.318316
3063.89	0.512002
3065.17	0.734232
3066.45	0.427556
3067.74	0.665613
3069.02	0.618515
3070.3	0.231113
3071.58	0.427704
3072.86	0.527928
3074.14	0.463794
3075.42	0.290147
3076.7	0.700313
3077.99	0.201068
3079.26	0.28666
3080.54	0.251494
3081.82	0.0956745
3083.1	0.361511
3084.38	0.0445838
3085.66	-0.326706
3086.94	0.0616198
3088.22	0.0557208
3089.5	-0.249371
3090.78	-0.215527
3092.05	0.103085
3093.33	0.0554862
3094.61	0.306513
3095.89	-0.052434
3097.16	-0.140059
3098.44	-0.0108509
3099.72	-0.179918
3100.99	0.125143
3102.27	0.132166
3103.54	-0.0230198
3104.82	0.0659704
3106.1	0.142064
3107.37	0.0295234
3108.65	0.134451
3109.92	-0.233391
3111.2	0.198315
3112.47	0.0485406
3113.74	-0.114515
3115.02	0.210314
3116.29	0.00606585
3117.56	0.397728
3118.84	0.273037
3120.11	-0.0560737
3121.38	0.0886598
3122.66	0.110796
3123.93	0.200494
3125.2	0.114269
3126.47	0.136802
3127.74	-0.083693
3129.01	-0.127767
3130.29	0.247654
3131.56	-0.228597
3132.83	0.106061
3134.1	0.305059
3135.37	0.0444317
3136.64	0.107385
3137.91	0.291131
3139.18	0.272197
3140.45	0.428124
3141.72	0.0594063
3142.99	0.309627
3144.26	0.492761
3145.52	0.27375
3146.79	0.0958791
3148.06	0.494908
3149.33	0.358449
