200.533	-0.183099
202.348	-0.159106
204.162	-0.134159
205.976	0.475209
207.792	0.0145121
209.605	0.379727
211.418	0.42762
213.23	0.935185
215.044	0.494929
216.856	0.248489
218.667	0.123452
220.478	0.21689
222.289	0.431932
224.102	0.260713
225.912	0.960021
227.721	0.523349
229.531	0.593598
231.34	-0.0609198
233.148	0.490932
234.956	0.58441
236.766	0.510296
238.574	0.872021
240.381	-0.0895576
242.188	-0.0368176
243.994	0.0412045
245.801	0.456972
247.606	0.0746489
249.412	0.244825
251.217	0.749861
253.024	0.479495
254.828	-0.130156
256.632	0.152411
258.436	0.483633
260.239	0.117528
262.042	0.114662
263.845	-0.248079
265.647	-0.344984
267.449	-0.321225
269.25	0.208369
271.052	0.134534
272.852	0.710472
274.653	0.296412
276.453	0.362877
278.253	-0.150909
280.052	0.537996
281.852	0.213118
283.65	0.728518
285.449	0.0883188
287.247	0.57658
289.044	0.176713
290.842	0.113642
292.639	-0.0438557
294.436	0.541792
296.232	0.578323
298.028	0.233454
299.821	0.414837
301.617	0.763062
303.412	0.489361
305.206	-0.0478878
307	0.0107594
308.794	0.28362
310.588	0.318456
312.381	0.187684
314.172	-0.012908
315.964	0.12163
317.756	0.162605
319.548	-0.366741
321.34	0.343908
323.131	-0.0887051
324.921	0.790979
326.71	0.668946
328.5	-0.170281
330.29	0.901337
332.079	-0.0363016
333.868	0.00460243
335.654	0.187026
337.443	0.821887
339.231	0.832397
341.018	-0.0913458
342.804	0.227848
344.591	0.259996
346.377	0.483664
348.163	0.564593
349.947	0.335609
351.733	0.536338
353.518	-0.408973
355.303	0.195745
357.085	0.250292
358.869	0.0651808
360.653	0.522133
362.435	-0.0219164
364.218	0.456526
366.001	0.149489
367.781	0.0795584
369.563	0.838763
371.345	0.15072
373.124	0.622736
374.905	0.0535383
376.686	0.0757961
378.464	0.428609
380.244	0.451821
382.022	0.664448
383.801	-0.439083
385.58	0.434536
387.357	0.533094
389.135	0.209875
390.911	0.357478
392.689	0.529332
394.466	0.0207462
396.241	0.0761175
398.018	-0.479051
399.792	-0.118456
401.568	0.711522
403.341	0.977142
405.117	0.114659
406.889	0.543177
408.664	0.642266
410.436	0.271542
412.21	0.229572
413.981	0.164573
415.755	0.66341
417.525	-0.315196
419.298	-0.354675
421.068	0.19282
422.84	-0.12831
424.609	0.394964
426.38	0.471338
428.149	0.0304375
429.919	-0.293466
431.688	0.0633192
433.455	0.443844
435.225	0.16757
436.992	-0.226086
438.76	-0.0336618
440.527	0.579689
442.293	-0.404312
444.06	-0.240688
445.826	0.131829
447.593	-0.222918
449.357	0.0772772
451.122	0.143431
452.888	0.0463943
454.651	-0.143553
456.415	-0.286602
458.18	-0.219967
459.942	-0.130078
461.705	0.750973
463.469	0.23812
465.23	0.00685787
466.991	0.0107374
468.752	0.0404167
470.515	0.862622
472.275	0.73228
474.035	0.321632
475.797	0.584349
477.556	0.122902
479.315	0.148836
481.073	0.17386
482.834	0.385391
484.592	0.598112
486.349	-0.142316
488.106	0.167589
489.863	0.12997
491.622	0.490191
493.378	0.337642
495.134	0.208418
496.889	0.734351
498.645	0.83923
500.401	0.334103
502.156	0.132606
503.91	0.423223
505.664	0.50159
507.417	1.07253
509.171	0.513193
510.923	0.634316
512.678	0.0950289
514.43	0.683746
516.182	0.235863
517.933	0.774775
519.684	0.630594
521.435	0.509307
523.186	0.528593
524.936	0.524203
526.686	0.285242
528.435	0.281034
530.184	0.65168
531.933	0.787323
533.682	0.734748
535.43	0.189897
537.18	0.415744
538.927	0.756536
540.674	0.465824
542.421	0.175017
544.167	0.628983
545.913	0.268634
547.659	0.327075
549.403	0.501562
551.148	0.583265
552.893	0.202406
554.637	0.122943
556.381	0.413234
558.125	-0.703246
559.868	-0.0893116
561.611	-0.0743866
563.354	0.792107
565.097	0.554697
566.839	-0.485659
568.581	0.404376
570.322	-0.128119
572.063	0.0981474
573.802	-0.339289
575.542	0.463738
577.283	0.0525417
579.022	0.216257
580.762	0.357905
582.501	0.0402117
584.24	0.434402
585.976	0.321944
587.714	0.185205
589.452	0.231326
591.19	-0.0455284
592.927	0.183311
594.663	-0.140148
596.398	-0.11843
598.134	0.0643177
599.87	0.0396729
601.605	0.428305
603.338	-0.334318
605.073	-0.385134
606.808	-0.0694342
608.542	0.543711
610.274	0.306908
612.007	-0.273195
613.74	-0.0724535
615.473	-0.00873661
617.204	0.00928688
618.936	-0.0876961
620.668	-0.277156
622.397	0.424616
624.128	0.233131
625.859	0.384604
627.588	0.445668
629.318	-0.198792
631.048	0.163264
632.775	0.207796
634.505	0.869596
636.233	-0.0438194
637.96	0.20519
639.688	0.451527
641.416	0.0561409
643.142	0.137607
644.869	0.33161
646.594	-0.224998
648.32	-0.00610924
650.045	-0.488841
651.771	-0.536237
653.496	0.283609
655.219	0.243163
656.944	0.546398
658.667	-0.0834427
660.391	0.129285
662.113	0.249548
663.837	0.459204
665.558	0.118014
667.281	0.59808
669.002	0.048418
670.724	0.734638
672.444	0.00431442
674.166	0.420547
675.885	-0.0315561
677.606	0.342658
679.325	0.924463
681.045	0.379891
682.763	0.545902
684.483	0.710063
686.2	0.319733
687.917	0.0428705
689.636	0.617218
691.352	0.24649
693.07	0.635308
694.786	0.332384
696.501	0.44311
698.219	0.529613
699.933	1.19009
701.65	0.721879
703.364	0.942782
705.078	0.565568
706.793	0.647375
708.506	0.7516
710.219	0.465789
711.934	0.386135
713.646	0.580812
715.358	0.866368
717.071	1.03721
718.782	1.5044
720.493	1.26445
722.204	1.04786
723.916	0.85444
725.626	1.5478
727.336	1.42202
729.045	1.31874
730.756	1.03383
732.464	0.794417
734.173	0.872043
735.881	0.746175
737.59	1.09507
739.297	0.880054
741.004	0.846695
742.711	1.12993
744.417	1.41416
746.125	1.227
747.831	1.35633
749.537	1.19455
751.242	1.5964
752.946	1.52724
754.651	1.302
756.357	0.965601
758.061	0.90062
759.764	1.35516
761.467	0.638988
763.17	1.18582
764.872	1.23641
766.575	1.28594
768.276	1.69541
769.978	1.26633
771.679	1.08387
773.382	1.28448
775.083	0.761107
776.783	1.61753
778.483	1.72912
780.182	1.79704
781.882	1.66249
783.581	2.13903
785.279	1.09796
786.978	1.79744
788.676	1.40728
790.373	1.57969
792.071	1.02603
793.768	1.37499
795.464	1.45238
797.161	1.3277
798.857	1.33996
800.552	2.34428
802.248	2.04421
803.941	2.21733
805.636	1.53591
807.33	2.09005
809.024	1.3175
810.718	1.41998
812.412	1.76807
814.105	0.860395
815.798	1.47622
817.49	2.13571
819.183	2.07902
820.873	1.59836
822.564	1.69895
824.256	2.69204
825.947	1.67993
827.637	1.406
829.328	1.86979
831.016	2.53705
832.705	1.40293
834.395	2.32066
836.084	2.19209
837.772	1.86227
839.459	1.82117
841.147	1.75612
842.835	1.66737
844.522	2.06975
846.209	1.73541
847.894	2.02873
849.581	1.2285
851.267	1.01169
852.953	1.40147
854.637	1.61339
856.322	1.82557
858.007	1.22758
859.689	1.68455
861.374	2.23044
863.058	1.10814
864.739	1.24571
866.423	1.29232
868.106	1.45107
869.787	1.31625
871.469	0.820144
873.151	1.47429
874.831	1.20343
876.512	1.20329
878.193	0.751768
879.872	1.63182
881.553	1.06688
883.231	1.13328
884.911	1.35664
886.591	0.856339
888.268	1.25729
889.947	1.22791
891.623	1.21967
893.302	1.09754
894.978	1.42448
896.656	1.7048
898.331	0.299421
900.008	1.47567
901.683	1.30422
903.359	1.44588
905.033	1.49763
906.709	1.39324
908.383	0.531794
910.058	1.49908
911.731	1.30846
913.405	1.60779
915.078	1.35184
916.752	1.38475
918.423	0.819192
920.096	1.09613
921.768	0.797976
923.438	0.965568
925.111	1.17864
926.781	1.3491
928.452	0.638199
930.122	1.67208
931.791	1.36039
933.462	1.22551
935.13	1.06879
936.799	1.22128
938.468	1.55104
940.136	1.06595
941.803	0.692174
943.472	1.04708
945.139	0.806037
946.805	0.806626
948.473	1.04829
950.139	0.824614
951.804	1.23971
953.471	0.992999
955.136	0.836137
956.801	0.814217
958.465	1.01593
960.131	0.823157
961.794	0.697798
963.458	1.78788
965.12	1.1966
966.785	0.447311
968.447	0.624468
970.109	0.843929
971.771	1.41641
973.432	1.23727
975.095	1.19229
976.756	1.1933
978.417	1.04091
980.077	1.24309
981.737	1.44496
983.396	1.44629
985.057	1.73341
986.716	1.68633
988.375	2.01354
990.033	1.85267
991.691	1.6029
993.349	0.624404
995.006	0.596292
996.663	1.62724
998.32	1.06949
999.976	1.37152
1001.63	1.01214
1003.29	1.57706
1004.95	1.74502
1006.6	0.528249
1008.26	1.15785
1009.91	0.777484
1011.56	0.902407
1013.22	1.13718
1014.87	1.08732
1016.53	1.01601
1018.18	1.03279
1019.83	0.634797
1021.48	0.434853
1023.14	0.695048
1024.79	1.19643
1026.44	1.08637
1028.09	1.04188
1029.74	1.06229
1031.39	0.950444
1033.04	1.01176
1034.69	1.2023
1036.34	0.911613
1037.99	0.838424
1039.64	1.09178
1041.29	0.845148
1042.94	1.25221
1044.58	0.661152
1046.23	1.50589
1047.88	1.26631
1049.52	0.91979
1051.17	0.378922
1052.82	0.816224
1054.46	0.428308
1056.11	1.04
1057.75	1.02122
1059.4	0.828006
1061.04	1.13424
1062.69	0.983075
1064.33	0.983216
1065.98	0.395373
1067.62	0.567445
1069.26	1.08609
1070.9	0.713347
1072.55	0.492755
1074.19	0.793544
1075.83	0.986656
1077.47	0.508679
1079.11	1.33306
1080.76	0.683551
1082.4	0.684543
1084.04	0.0559015
1085.68	0.37978
1087.32	1.37321
1088.95	0.826127
1090.59	1.01375
1092.23	0.637918
1093.87	0.413473
1095.51	1.07418
1097.15	0.592081
1098.78	0.607443
1100.42	0.387643
1102.06	0.729288
1103.69	0.556082
1105.33	0.878869
1106.97	0.470843
1108.6	0.492691
1110.24	0.642492
1111.87	0.554287
1113.51	0.421684
1115.14	0.567153
1116.77	1.11946
1118.41	0.406352
1120.04	0.3161
1121.67	0.826394
1123.31	0.481116
1124.94	0.778862
1126.57	0.2217
1128.2	0.435344
1129.83	0.478516
1131.47	0.522201
1133.1	0.24548
1134.72	0.310668
1136.36	0.781313
1137.98	0.951608
1139.62	0.138103
1141.24	0.989592
1142.87	0.708839
1144.5	0.599135
1146.13	0.682055
1147.76	0.637956
1149.38	0.296432
1151.01	0.338906
1152.64	0.296165
1154.27	-0.151374
1155.89	0.20972
1157.52	0.18752
1159.14	0.335825
1160.77	-0.0467634
1162.39	0.847492
1164.02	0.105439
1165.64	-0.0621014
1167.27	-0.35747
1168.89	0.494267
1170.51	0.175124
1172.14	0.130614
1173.76	0.742695
1175.38	0.334456
1177	-0.0100279
1178.63	-0.226687
1180.25	-0.188422
1181.87	0.0409584
1183.49	0.101521
1185.11	0.309908
1186.73	-0.116304
1188.35	0.279467
1189.97	0.124721
1191.59	0.263308
1193.21	0.484269
1194.83	0.640892
1196.45	0.77615
1198.07	0.0535727
1199.68	-0.205567
1201.3	0.707904
1202.92	0.724663
1204.53	0.243003
1206.15	1.01547
1207.77	0.328581
1209.38	1.1231
1211	0.540081
1212.62	0.518662
1214.23	0.328491
1215.84	-0.0300379
1217.46	0.858533
1219.07	0.726197
1220.69	0.946927
1222.3	1.08495
1223.91	0.685239
1225.53	0.743091
1227.14	0.926456
1228.75	1.02824
1230.36	1.23454
1231.97	0.222334
1233.59	1.0097
1235.2	1.19879
1236.81	1.38906
1238.42	1.12558
1240.03	1.00737
1241.64	1.11678
1243.25	1.51555
1244.85	1.35501
1246.46	1.44173
1248.07	1.44468
1249.68	1.73655
1251.29	1.32467
1252.9	1.67847
1254.5	1.70201
1256.11	1.5198
1257.72	1.81461
1259.32	1.55201
1260.93	1.60063
1262.54	1.83611
1264.14	0.994551
1265.75	1.10524
1267.35	1.42258
1268.96	1.22082
1270.56	1.82662
1272.16	1.83011
1273.77	1.99839
1275.37	1.52304
1276.97	2.02091
1278.57	1.50261
1280.18	1.85374
1281.78	1.27293
1283.38	1.80987
1284.98	1.4784
1286.58	1.14805
1288.18	1.81094
1289.78	1.54458
1291.38	1.93999
1292.99	1.2195
1294.58	1.63465
1296.18	1.51137
1297.78	1.65495
1299.38	1.11592
1300.98	1.77185
1302.58	1.68399
1304.17	2.00691
1305.77	2.32846
1307.37	1.60148
1308.97	1.88093
1310.56	1.97537
1312.16	1.04648
1313.76	2.12435
1315.35	1.34188
1316.95	2.1337
1318.54	1.94561
1320.14	1.59456
1321.73	1.67089
1323.32	1.84729
1324.92	1.61506
1326.51	1.56471
1328.1	1.77752
1329.7	1.56519
1331.29	1.71899
1332.88	2.17777
1334.47	1.50748
1336.07	0.920341
1337.66	1.76624
1339.25	1.74378
1340.84	2.02179
1342.43	1.31117
1344.02	1.40409
1345.61	2.03778
1347.2	1.66762
1348.79	1.17984
1350.37	1.75598
1351.96	0.593777
1353.55	1.014
1355.14	0.775552
1356.73	0.997137
1358.31	1.17823
1359.9	1.67778
1361.49	1.35754
1363.07	1.27621
1364.66	1.31426
1366.25	0.575502
1367.83	0.97335
1369.42	0.0781069
1371	0.677214
1372.59	0.839581
1374.17	0.863663
1375.75	1.30622
1377.34	1.29121
1378.92	0.559334
1380.5	1.02043
1382.09	0.565107
1383.67	1.20257
1385.25	1.18266
1386.83	0.606094
1388.42	0.705384
1390	1.02354
1391.58	0.56845
1393.16	0.550759
1394.74	1.02923
1396.32	0.87279
1397.9	0.0616312
1399.48	0.835343
1401.06	0.835114
1402.64	0.953122
1404.21	0.536855
1405.79	0.872877
1407.37	0.774568
1408.95	1.05252
1410.53	0.817204
1412.1	0.641217
1413.68	1.13593
1415.26	0.445568
1416.83	0.445337
1418.41	0.464493
1419.98	0.818821
1421.56	1.03598
1423.13	0.447412
1424.71	0.72654
1426.28	0.790258
1427.86	0.736353
1429.43	1.3514
1431	1.11923
1432.58	1.35832
1434.15	1.26195
1435.72	1.30291
1437.29	1.04914
1438.87	1.44485
1440.44	1.72347
1442.01	1.76715
1443.58	2.067
1445.15	1.71868
1446.72	1.88154
1448.29	1.69076
1449.86	1.8541
1451.43	2.2539
1453	1.76938
1454.57	2.42596
1456.14	1.94158
1457.71	1.71218
1459.27	2.15062
1460.84	1.9182
1462.41	1.48729
1463.98	2.09735
1465.54	1.23168
1467.11	1.36844
1468.67	1.11276
1470.24	0.524567
1471.81	0.467493
1473.37	1.03898
1474.94	0.473608
1476.5	0.771468
1478.07	0.285174
1479.63	0.622227
1481.19	0.508325
1482.76	0.649137
1484.32	0.67222
1485.88	0.0876865
1487.45	0.305719
1489.01	0.718213
1490.57	0.659044
1492.13	0.461124
1493.69	0.183515
1495.26	0.841347
1496.82	0.600378
1498.38	0.204188
1499.94	-0.248809
1501.5	0.154284
1503.06	0.344224
1504.62	0.34082
1506.17	0.00858402
1507.73	0.140537
1509.29	0.290647
1510.85	0.149984
1512.41	-0.125957
1513.97	0.252833
1515.52	0.188762
1517.08	0.355744
1518.64	0.369632
1520.19	-0.0756674
1521.75	0.666442
1523.31	-0.00770283
1524.86	0.407152
1526.42	0.152786
1527.97	0.107745
1529.52	0.233486
1531.08	0.624665
1532.63	0.0103798
1534.19	0.610362
1535.74	0.623522
1537.29	0.127403
1538.85	0.633229
1540.4	0.459601
1541.95	0.663136
1543.5	0.903832
1545.06	0.749065
1546.61	0.331474
1548.16	0.608795
1549.71	1.35409
1551.26	1.48017
1552.81	0.989243
1554.36	0.649632
1555.91	1.39502
1557.46	0.666615
1559.01	0.612357
1560.56	0.765031
1562.11	0.732575
1563.65	0.962296
1565.2	0.744769
1566.75	0.769861
1568.29	0.58944
1569.84	1.17395
1571.39	1.40351
1572.94	1.25947
1574.48	1.35798
1576.03	1.13917
1577.57	0.939232
1579.12	0.851664
1580.66	0.951368
1582.21	1.16388
1583.75	1.04101
1585.3	1.51677
1586.84	1.7877
1588.38	2.0216
1589.93	1.60053
1591.47	1.32845
1593.01	1.05575
1594.55	1.10106
1596.1	1.48369
1597.64	1.47337
1599.18	1.63244
1600.72	1.96115
1602.26	1.55865
1603.8	1.34348
1605.34	1.3529
1606.88	1.98121
1608.42	1.38614
1609.96	1.10839
1611.5	1.44866
1613.04	1.16712
1614.58	1.33515
1616.12	1.05248
1617.65	1.63282
1619.19	1.6329
1620.73	1.40968
1622.27	1.03809
1623.8	1.28515
1625.34	1.53214
1626.87	1.29172
1628.41	1.6489
1629.95	1.29388
1631.48	0.9196
1633.02	1.25516
1634.55	1.51596
1636.09	1.21754
1637.62	2.11381
1639.15	1.49993
1640.69	1.33376
1642.22	1.16714
1643.76	1.66997
1645.29	1.61285
1646.82	1.83387
1648.35	1.92423
1649.88	1.69922
1651.42	2.68161
1652.95	1.69822
1654.48	2.05165
1656.01	1.92355
1657.54	2.48099
1659.07	2.51862
1660.6	2.2587
1662.13	2.25662
1663.66	2.56766
1665.19	2.08345
1666.72	2.67077
1668.24	1.56173
1669.77	1.85629
1671.3	1.65454
1672.83	1.34345
1674.35	1.40123
1675.88	1.77172
1677.41	1.6443
1678.93	1.90224
1680.46	1.16611
1681.99	1.66119
1683.51	0.925113
1685.04	1.58464
1686.56	1.45513
1688.09	1.06962
1689.61	1.19779
1691.13	1.01481
1692.66	0.97847
1694.18	1.19818
1695.71	1.08844
1697.23	0.814145
1698.75	1.14245
1700.27	0.630487
1701.8	0.59289
1703.32	0.773527
1704.84	0.316066
1706.36	0.641309
1707.88	0.711258
1709.4	0.672037
1710.92	0.233736
1712.44	0.304018
1713.96	0.501143
1715.48	0.444569
1717	0.49655
1718.52	0.457967
1720.04	0.34716
1721.56	0.308867
1723.07	-0.0353518
1724.59	0.234301
1726.11	0.39672
1727.63	-0.393853
1729.14	-0.121441
1730.66	0.528379
1732.18	0.316738
1733.69	0.29906
1735.21	0.310518
1736.72	0.202049
1738.24	-0.05654
1739.75	0.504484
1741.27	0.189715
1742.78	0.150395
1744.3	0.304229
1745.81	0.265945
1747.32	0.11362
1748.84	0.392785
1750.35	-0.170172
1751.86	0.169622
1753.37	0.202773
1754.89	0.555425
1756.4	0.00810099
1757.91	-0.123962
1759.42	-0.00963306
1760.93	0.1251
1762.44	-0.0503769
1763.95	0.196251
1765.46	0.145828
1766.97	0.0464797
1768.48	0.357765
1769.99	0.11796
1771.5	-0.154901
1773.01	-0.328723
1774.52	-0.124846
1776.03	-0.0520463
1777.53	-0.142178
1779.04	-0.376719
1780.55	-0.391191
1782.06	0.0708413
1783.56	0.00339651
1785.07	-0.204914
1786.57	0.116055
1788.08	-0.0740266
1789.59	0.366631
1791.09	0.488159
1792.6	-0.0824246
1794.1	0.204925
1795.6	-0.0592394
1797.11	-0.331099
1798.61	0.118695
1800.12	0.313655
1801.62	0.541053
1803.12	0.0484867
1804.63	0.256691
1806.13	0.158112
1807.63	-0.0898123
1809.13	-0.0856266
1810.63	-0.0920043
1812.14	-0.0676551
1813.64	-0.0820184
1815.14	-0.156374
1816.64	0.245183
1818.14	0.14866
1819.64	-0.0279441
1821.14	0.0839915
1822.64	0.146279
1824.14	0.0653324
1825.63	0.0761342
1827.13	0.119836
1828.63	0.13156
1830.13	0.0459166
1831.63	0.0262284
1833.12	0.204836
1834.62	-0.0931196
1836.12	0.380606
1837.62	-0.210764
1839.11	-0.0851011
1840.61	0.126461
1842.1	0.110148
1843.6	0.396354
1845.09	0.0298924
1846.59	0.0397911
1848.08	0.0708995
1849.58	-0.131415
1851.07	0.105179
1852.57	0.0800748
1854.06	0.0247741
1855.55	-0.0167794
1857.04	0.0617414
1858.54	0.395642
1860.03	0.294349
1861.52	-0.0537829
1863.01	-0.0486536
1864.5	0.188334
1866	-0.147456
1867.49	0.538809
1868.98	0.15145
1870.47	0.411129
1871.96	0.212557
1873.45	0.109276
1874.94	0.399235
1876.43	0.585536
1877.92	0.283617
1879.41	0.0665145
1880.89	0.35103
1882.38	-0.061038
1882.48	-0.0922732
1883.97	0.118314
1885.47	0.415225
1886.96	-0.1946
1888.46	0.658043
1889.95	0.448594
1891.44	0.32714
1892.94	0.0332608
1894.43	0.106074
1895.92	0.249743
1897.41	0.307229
1898.9	0.416852
1900.4	0.195109
1901.89	0.702612
1903.38	0.304018
1904.87	0.304269
1906.36	0.37332
1907.85	0.598536
1909.34	0.476904
1910.83	0.0612035
1912.32	0.0281348
1913.81	0.290395
1915.29	0.0150857
1916.78	-0.139027
1918.27	0.139807
1919.76	0.504721
1921.25	0.211104
1922.74	0.108469
1924.22	0.145093
1925.71	0.251891
1927.2	0.238401
1928.68	-0.051568
1930.17	0.316405
1931.65	0.458644
1933.14	0.651577
1934.63	0.237017
1936.11	0.132794
1937.59	0.390778
1939.08	-0.129537
1940.56	0.162621
1942.05	0.213507
1943.53	0.230719
1945.01	0.0417151
1946.5	-0.19857
1947.98	0.491735
1949.46	0.62965
1950.94	0.59438
1952.43	0.403463
1953.91	-0.01126
1955.39	0.193114
1956.87	0.483387
1958.35	0.379139
1959.83	-0.0674677
1961.31	0.447018
1962.79	0.207079
1964.27	0.241318
1965.75	0.223732
1967.23	0.325396
1968.71	0.734259
1970.19	0.0822854
1971.67	0.319202
1973.14	0.333823
1974.62	0.55317
1976.1	0.431466
1977.58	0.463371
1979.05	0.325096
1980.53	0.578212
1982.01	0.0488968
1983.48	0.403373
1984.96	0.179932
1986.43	0.244944
1987.91	0.377618
1989.38	0.222449
1990.86	0.0511198
1992.33	0.455805
1993.81	0.353755
1995.28	0.134183
1996.76	0.573987
1998.23	0.371719
1999.7	0.388698
2001.18	0.506394
2002.65	0.572947
2004.12	0.656153
2005.59	0.453095
2007.06	0.318198
2008.54	0.807205
2010.01	0.185593
2011.48	0.38945
2012.95	0.424989
2014.42	0.224567
2015.89	0.578791
2017.36	0.427466
2018.83	0.309173
2020.3	0.526564
2021.77	0.592448
2023.24	0.490673
2024.71	0.35608
2026.17	0.423836
2027.64	0.626936
2029.11	0.344886
2030.58	0.466504
2032.04	0.437967
2033.51	0.25874
2034.98	0.314475
2036.45	0.554718
2037.91	0.206529
2039.38	0.378847
2040.84	0.2822
2042.31	0.690234
2043.77	0.409512
2045.24	0.432205
2046.7	0.792264
2048.17	0.445485
2049.63	0.367732
2051.1	0.626278
2052.56	0.512649
2054.02	0.717891
2055.48	0.381976
2056.95	0.651918
2058.41	0.533389
2059.87	0.566385
2061.33	0.885916
2062.8	0.397963
2064.26	0.331802
2065.72	0.417933
2067.18	0.370123
2068.64	0.390118
2070.1	0.444042
2071.56	0.39701
2073.02	0.400355
2074.48	0.75709
2075.94	0.557862
2077.4	0.610901
2078.86	0.730952
2080.31	0.44646
2081.77	0.733997
2083.23	0.532698
2084.69	0.128932
2086.14	0.801418
2087.6	0.632096
2089.06	1.06757
2090.52	0.578563
2091.97	0.576851
2093.43	0.591837
2094.88	0.589814
2096.34	0.738214
2097.79	0.902593
2099.25	0.898807
2100.7	0.476649
2102.16	0.255824
2103.61	0.453427
2105.07	1.05238
2106.52	1.18488
2107.97	1.03471
2109.43	1.00164
2110.88	0.68475
2112.33	0.716895
2113.78	0.89743
2115.24	1.15949
2116.69	0.838415
2118.14	0.567961
2119.59	1.14552
2121.04	0.877961
2122.49	1.0269
2123.94	1.1273
2125.39	1.01272
2126.84	1.06373
2128.29	1.11387
2129.74	1.09647
2131.19	1.67418
2132.64	1.2739
2134.09	1.20486
2135.54	1.69874
2136.98	1.38363
2138.43	1.51651
2139.88	1.88247
2141.33	1.40702
2142.77	1.16388
2144.22	1.71518
2145.67	1.38992
2147.11	1.87541
2148.56	1.68159
2150.01	2.16609
2151.45	1.75508
2152.9	1.64132
2154.34	1.82503
2155.79	1.75975
2157.23	1.66139
2158.67	1.29863
2160.12	1.68245
2161.56	1.71999
2163	1.65974
2164.45	2.1151
2165.89	2.12364
2167.33	1.93276
2168.78	1.9734
2170.22	1.66316
2171.66	2.24912
2173.1	2.13463
2174.54	2.43465
2175.98	2.18515
2177.42	2.00242
2178.86	1.83704
2180.3	2.27108
2181.74	2.12405
2183.18	2.04406
2184.62	2.36348
2186.06	2.30047
2187.5	2.30399
2188.94	1.77499
2190.38	1.74512
2191.82	2.01466
2193.25	1.91728
2194.69	1.78538
2196.13	1.25236
2197.57	1.98245
2199	1.61271
2200.44	1.47511
2201.88	1.23792
2203.31	1.35002
2204.75	1.38001
2206.18	1.77549
2207.62	1.57471
2209.05	1.35739
2210.49	1.53682
2211.92	1.51663
2213.36	1.34701
2214.79	1.32614
2216.22	1.22326
2217.66	1.15446
2219.09	1.2352
2220.52	1.0199
2221.96	1.1015
2223.39	0.770584
2224.82	0.899877
2226.25	0.813649
2227.68	1.10428
2229.11	0.851237
2230.55	0.778503
2231.98	1.1154
2233.41	0.813367
2234.84	0.806927
2236.27	1.01384
2237.7	0.503442
2239.12	0.452064
2240.55	0.842737
2241.98	0.696537
2243.41	0.779732
2244.84	0.732757
2246.27	0.407961
2247.7	0.766929
2249.12	0.178386
2250.55	0.794276
2251.98	1.0008
2253.41	0.978518
2254.83	0.875247
2256.26	0.594754
2257.68	0.543688
2259.11	0.754535
2260.54	0.724427
2261.96	0.663883
2263.39	0.409722
2264.81	0.529312
2266.24	1.18533
2267.66	0.686313
2269.08	0.804503
2270.51	0.58022
2271.93	0.713603
2273.35	0.472295
2274.78	0.670758
2276.2	0.739124
2277.62	0.237233
2279.04	0.322006
2280.47	0.618758
2281.89	0.752444
2283.31	0.445612
2284.73	0.432384
2286.15	0.190793
2287.57	0.373861
2288.99	0.443055
2290.41	0.676026
2291.83	0.549781
2293.25	0.42352
2294.67	0.346211
2296.09	0.416074
2297.51	0.305813
2298.93	0.703337
2300.35	0.31465
2301.76	0.532525
2303.18	0.439137
2304.6	0.427842
2306.02	0.120857
2307.44	0.601982
2308.85	0.540633
2310.27	0.478745
2311.69	0.465817
2313.1	0.189573
2314.52	0.374312
2315.93	0.0822363
2317.35	0.317685
2318.76	0.240545
2320.18	0.460025
2321.59	0.117826
2323.01	0.120535
2324.42	0.30297
2325.83	0.599017
2327.25	0.761484
2328.66	0.758288
2330.07	0.985819
2331.49	0.571781
2332.9	0.603357
2334.31	0.0761895
2335.72	0.487152
2337.13	0.404168
2338.55	0.0574079
2339.96	0.120853
2341.37	0.199892
2342.78	0.147118
2344.19	0.192771
2345.6	-0.122006
2347.01	-0.0266924
2348.42	0.00305033
2349.83	0.42507
2351.24	0.208354
2352.65	0.0891938
2354.05	0.62218
2355.46	0.354798
2356.87	0.364492
2358.28	0.471721
2359.69	0.107613
2361.09	-0.0121932
2362.5	0.20872
2363.91	0.186135
2365.31	0.487112
2366.72	0.383551
2368.13	0.183795
2369.53	-0.0309119
2370.94	0.174837
2372.34	0.316929
2373.75	0.314765
2375.15	0.119768
2376.56	0.214265
2377.96	0.291741
2379.37	0.335734
2380.77	0.314083
2382.17	0.179071
2383.58	0.363944
2384.98	-0.075706
2386.38	0.252903
2387.79	0.0867081
2389.19	0.145002
2390.59	0.0767255
2391.99	0.168676
2393.39	0.19767
2394.8	0.00463486
2396.2	0.0666862
2397.6	0.240437
2399	0.366885
2400.4	0.430137
2401.8	0.525394
2403.2	0.239512
2404.6	-0.0306816
2406	0.412916
2407.4	-0.16007
2408.79	0.0439639
2410.19	0.104852
2411.59	0.466853
2412.99	0.132361
2414.39	0.0840735
2415.78	0.0369544
2417.18	-0.00912189
2418.58	0.357197
2419.98	0.169657
2421.37	0.235402
2422.77	-0.0159626
2424.16	0.0651217
2425.56	0.304724
2426.96	0.544799
2428.35	0.310094
2429.74	0.187019
2431.14	0.112009
2432.53	0.354551
2433.93	0.136347
2435.32	0.155408
2436.72	0.395746
2438.11	-0.0801005
2439.5	0.0150146
2440.9	0.37932
2442.29	-0.0507879
2443.68	0.264999
2445.07	0.0252323
2446.47	0.181911
2447.86	-0.041997
2449.25	-0.265721
2450.64	0.00175571
2452.03	0.0478363
2453.42	-0.0953898
2454.81	0.426564
2456.2	0.379476
2457.59	0.0637665
2458.98	-0.188741
2460.37	0.0328145
2461.76	0.127178
2463.15	0.205051
2464.54	0.234996
2465.93	-0.114355
2467.32	-0.00569773
2468.7	-0.0234075
2470.09	0.274167
2471.48	-0.0751896
2472.87	-0.156865
2474.25	0.264741
2475.64	0.354863
2477.03	0.0830255
2478.41	-0.141306
2479.8	0.0428448
2481.18	0.226841
2482.57	0.0344772
2483.95	0.249093
2485.34	0.290587
2486.72	-0.418838
2488.11	0.167723
2489.49	0.222347
2490.88	0.105476
2492.26	-0.290506
2493.65	0.0139799
2495.03	-0.177524
2496.41	-0.0267291
2497.79	0.24843
2499.18	0.260308
2500.56	0.0708408
2501.94	0.159248
2503.32	-0.216498
2504.7	0.0556602
2506.09	0.0185823
2507.47	0.058341
2508.85	0.328713
2510.23	-0.138326
2511.61	0.30129
2512.99	0.434144
2514.37	0.261165
2515.75	-0.20167
2517.13	-0.0514278
2518.51	-0.130255
2519.89	0.249581
2521.26	-0.104276
2522.64	0.304961
2524.02	0.163886
2525.4	-0.145199
2526.78	-0.0276117
2528.15	0.257467
2529.53	0.0260057
2530.91	0.0848236
2532.28	-0.067791
2533.66	-0.264852
2535.04	-0.203046
2536.41	-0.050096
2537.79	0.102343
2539.16	-0.0953212
2540.54	-0.020227
2541.91	-0.203491
2543.29	0.0384016
2544.66	0.0836234
2546.04	-0.0218735
2547.41	0.0556231
2548.78	-0.139262
2550.16	-0.243073
2551.53	0.108027
2552.9	-0.118232
2554.27	0.0796342
2555.65	0.0491533
2557.02	0.0334148
2558.39	0.108559
2559.76	-0.134474
2561.13	0.047399
2562.51	0.366119
2563.88	0.0791273
2565.25	0.110741
2566.62	0.324422
2567.99	0.204792
2569.36	-0.0360765
2570.73	0.208054
2572.1	-0.108577
2573.47	0.272121
2574.84	-0.0292263
2576.2	-0.0273623
2577.57	0.0957556
2578.94	0.127746
2580.31	0.326271
2581.68	0.236374
2583.05	0.237164
2584.41	-0.0351095
2585.78	-0.0799856
2587.15	0.239008
2588.51	0.376244
2589.88	0.0740886
2591.24	0.317423
2592.61	0.0603428
2593.98	0.226892
2595.34	-0.00119066
2596.71	0.118243
2598.07	-0.156403
2599.44	0.0679064
2600.8	0.156037
2602.16	0.304888
2603.53	-0.376101
2604.89	0.105826
2606.26	0.0445399
2607.62	-0.0923247
2608.98	-0.199554
2610.34	-0.232251
2611.71	0.0050168
2613.07	0.195858
2614.43	0.115326
2615.79	0.0947714
2617.15	-0.22537
2618.52	0.129521
2619.88	-0.0692506
2621.24	-0.311974
2622.6	0.0437636
2623.96	0.309626
2625.32	0.112518
2626.68	0.0497022
2628.04	-0.102681
2629.4	0.11719
2630.75	0.143148
2632.11	-0.128343
2633.47	-0.23602
2634.83	-0.0615268
2636.19	-0.302575
2637.55	-0.276499
2638.9	-0.0431242
2640.26	-0.105883
2641.62	0.216041
2642.98	0.00590372
2644.33	0.0914755
2645.69	0.117879
2647.04	-0.150887
2648.4	0.081068
2649.76	0.194258
2651.11	0.100865
2652.47	-0.198191
2653.82	-0.232381
2655.18	0.144481
2656.53	0.170075
2657.88	0.313675
2659.24	-0.288206
2660.59	-0.187289
2661.95	-0.0719376
2663.3	0.0282497
2664.65	0.142291
2666	0.313919
2667.36	-0.0689073
2668.71	0.131293
2670.06	0.0985918
2671.41	0.517104
2672.76	0.150956
2674.12	0.206908
2675.47	0.0310459
2676.82	0.0444217
2678.17	-0.217248
2679.52	-0.0866246
2680.87	0.0302668
2682.22	-0.0838771
2683.57	-0.12461
2684.92	0.256042
2686.27	0.100478
2687.62	-0.185896
2688.97	0.12193
2690.31	-0.0360503
2691.66	0.0513458
2693.01	0.442168
2694.36	0.0487862
2695.71	0.162919
2697.05	-0.15715
2698.4	-0.215324
2699.75	0.249063
2701.09	-0.0381374
2702.44	0.00888586
2703.78	0.230675
2705.13	0.134164
2706.48	-0.0494032
2707.82	0.143963
2709.17	0.0468578
2710.51	0.0655632
2711.86	0.0840883
2713.2	0.0444031
2714.54	0.20815
2715.89	-0.16601
2717.23	-0.19142
2718.57	0.554013
2719.92	0.455557
2721.26	-0.167212
2722.6	0.0536842
2723.95	0.448928
2725.29	0.0723991
2726.63	0.132256
2727.97	0.104546
2729.31	0.411368
2730.65	0.0341415
2732	-0.00838375
2733.34	0.211023
2734.68	-0.0494642
2736.02	-0.0333934
2737.36	0.404574
2738.7	-0.07372
2740.04	-0.21765
2741.38	0.379662
2742.72	0.322097
2744.05	0.00241756
2745.39	-0.0560246
2746.73	0.0595222
2748.07	0.290955
2749.41	0.072453
2750.75	-0.0586801
2752.08	0.0714602
2753.42	0.187213
2754.76	0.187138
2756.09	0.317539
2757.43	0.303211
2758.77	0.100921
2760.1	0.0871887
2761.44	-0.0419154
2762.78	0.13326
2764.11	-0.212207
2765.44	0.281543
2766.78	0.0515332
2768.11	-0.0199895
2769.45	-0.0201421
2770.78	-0.1081
2772.12	-0.22586
2773.45	0.146401
2774.78	0.113928
2776.12	0.167908
2777.45	-0.0657463
2778.78	0.00340748
2780.12	0.173469
2781.45	0.214327
2782.78	0.111703
2784.11	0.396419
2785.44	-0.0215359
2786.78	0.0481896
2788.11	0.0180206
2789.44	-0.0830421
2790.77	-0.111811
2792.1	-0.197143
2793.43	-0.0676417
2794.76	0.147609
2796.09	0.0481715
2797.42	0.0912209
2798.75	0.162371
2800.08	-0.0951228
2801.4	-0.309781
2802.73	0.20281
2804.06	-0.026351
2805.39	0.271397
2806.72	0.42598
2808.05	-0.0175285
2809.37	-0.0911775
2810.7	-0.0368838
2812.03	0.329993
2813.35	0.541304
2814.68	0.115624
2816.01	0.30085
2817.33	0.316857
2818.66	0.0357084
2819.98	0.236494
2821.31	0.068439
2822.63	0.56595
2823.96	0.241031
2825.28	0.411745
2826.61	0.0584507
2827.93	0.144615
2829.25	0.160411
2830.58	0.00670242
2831.9	0.320315
2833.23	0.393238
2834.55	0.649916
2835.87	0.594806
2837.19	0.624186
2838.52	0.639057
2839.84	0.710323
2841.16	0.824047
2842.48	0.853244
2843.8	1.27868
2845.12	1.28068
2846.44	1.08536
2847.77	1.48393
2849.08	1.38787
2850.4	1.546
2851.73	1.54825
2853.05	1.69139
2854.36	1.29721
2855.68	1.62355
2857	2.09104
2858.32	1.92283
2859.64	1.93826
2860.96	1.95355
2862.28	2.10973
2863.59	2.1244
2864.91	2.67501
2866.23	2.43535
2867.55	2.49218
2868.86	3.08517
2870.18	3.04393
2871.5	3.25659
2872.81	3.24344
2874.13	3.58188
2875.44	3.51066
2876.76	3.57927
2878.07	3.71739
2879.39	3.78476
2880.7	3.45875
2882.02	3.69579
2883.33	2.97857
2884.65	3.1753
2885.96	3.6392
2887.28	3.41526
2888.59	3.62602
2889.9	3.48526
2891.21	3.62427
2892.53	3.59441
2893.84	3.64846
2895.15	3.67476
2896.46	3.70175
2897.78	3.96757
2899.09	3.75852
2900.4	3.57822
2901.71	4.23769
2903.02	3.9461
2904.33	4.08825
2905.64	4.09077
2906.95	4.2896
2908.26	4.64306
2909.57	5.1513
2910.88	5.21247
2912.19	4.88173
2913.5	5.41814
2914.81	4.91726
2916.12	5.67471
2917.43	5.82851
2918.73	5.63142
2920.04	6.23147
2921.35	6.25851
2922.66	6.56634
2923.96	6.49809
2925.27	6.65465
2926.58	6.82584
2927.88	7.08097
2929.19	6.80446
2930.5	6.4994
2931.8	7.25628
2933.11	6.99235
2934.41	6.93806
2935.72	7.19133
2937.02	7.24907
2938.33	7.15325
2939.63	7.44895
2940.94	6.71112
2942.24	6.35139
2943.54	6.30021
2944.85	6.11054
2946.15	5.85196
2947.45	5.92955
2948.76	5.39112
2950.06	5.52327
2951.36	5.55574
2952.66	5.23627
2953.97	5.08347
2955.27	4.72033
2956.57	4.45599
2957.87	4.71131
2959.17	4.74515
2960.47	4.96367
2961.77	5.21243
2963.07	4.88714
2964.37	4.53276
2965.67	4.28897
2966.97	4.32444
2968.27	4.09155
2969.57	3.8859
2970.87	4.31291
2972.17	3.60079
2973.47	3.92994
2974.77	3.33019
2976.07	3.51803
2977.36	3.15561
2978.66	3.5379
2979.96	3.35538
2981.26	3.17172
2982.55	2.4813
2983.85	2.69144
2985.15	2.76176
2986.44	3.04408
2987.74	2.93417
2989.03	2.75485
2990.33	2.85681
2991.63	2.12909
2992.92	2.08911
2994.21	1.7389
2995.51	1.71096
2996.8	1.75256
2998.1	1.23255
2999.39	1.54073
3000.69	1.55457
3001.98	1.49874
3003.27	1.20503
3004.57	1.23373
3005.86	1.27615
3007.15	1.206
3008.44	1.51294
3009.74	1.23144
3011.03	0.94963
3012.32	0.77951
3013.61	1.00019
3014.9	0.872296
3016.19	0.912235
3017.48	0.896974
3018.78	1.03515
3020.07	0.561274
3021.36	0.587903
3022.65	0.863776
3023.94	0.48612
3025.23	0.857128
3026.51	0.756231
3027.8	0.724996
3029.09	0.70845
3030.38	0.485792
3031.67	0.582109
3032.96	0.872394
3034.24	0.541657
3035.53	0.596955
3036.82	0.706258
3038.11	0.552147
3039.39	0.479325
3040.68	0.748952
3041.97	0.618973
3043.25	0.777028
3044.54	0.620398
3045.83	0.574751
3047.11	0.790388
3048.4	0.720845
3049.68	0.653028
3050.97	0.832084
3052.25	0.697875
3053.54	0.972967
3054.82	0.701687
3056.11	0.906935
3057.39	0.770219
3058.67	1.06886
3059.96	0.863001
3061.24	0.820876
3062.52	0.969894
3063.81	0.888703
3065.09	0.795145
3066.37	1.00176
3067.65	0.719681
3068.94	0.383377
3070.22	0.767526
3071.5	0.538901
3072.78	0.608414
3074.06	0.554429
3075.34	0.513202
3076.62	0.580265
3077.9	0.566015
3079.18	0.348998
3080.46	0.1603
3081.74	0.257594
3083.02	0.518573
3084.3	0.576566
3085.58	0.227393
3086.86	0.474888
3088.14	0.355259
3089.42	0.28926
3090.69	0.236368
3091.97	0.468157
3093.25	0.279369
3094.53	0.117896
3095.8	-0.0434189
3097.08	0.201964
3098.36	0.0811462
3099.63	0.149859
3100.91	0.231889
3102.19	0.0971122
3103.46	-0.0104308
3104.74	0.2884
3106.01	0.140963
3107.29	0.305385
3108.56	-0.11144
3109.84	-0.026866
3111.11	0.451032
3112.39	0.266044
3113.66	0.243737
3114.94	0.13995
3116.21	0.13053
3117.48	0.188132
3118.76	0.475346
3120.03	0.0562744
3121.3	0.0161324
3122.57	0.178692
3123.85	0.191795
3125.12	0.475665
3126.39	-0.0390272
3127.66	0.0963645
3128.93	0.231919
3130.21	-0.0786672
3131.48	0.32727
3132.75	0.313793
3134.02	-0.456499
3135.29	-0.308605
3136.56	0.135363
3137.83	-0.0689559
3139.1	-0.125245
3140.37	0.222047
3141.64	0.124822
3142.91	-0.119996
3144.17	0.213074
3145.44	0.371525
3146.71	-0.00612545
3147.98	0.380701
3149.25	-0.116336
