200.43	0.297241
202.246	0.314555
204.061	0.333249
205.875	0.717886
207.688	0.762292
209.501	0.514676
211.316	0.144899
213.129	0.648151
214.941	0.834389
216.753	0.898666
218.566	0.623968
220.377	1.02808
222.188	0.368501
223.999	-0.0475588
225.809	0.890783
227.618	-0.0315256
229.43	0.350609
231.239	0.225078
233.047	0.0994425
234.855	-0.266768
236.663	0.16406
238.471	0.934309
240.278	0.0440979
242.087	-0.193071
243.894	-0.16368
245.7	-0.206621
247.506	-0.17857
249.311	0.329902
251.116	-0.130466
252.921	0.854828
254.725	0.172993
256.529	0.431758
258.333	0.329671
260.136	0.277587
261.939	0.564802
263.744	0.420209
265.546	-0.446127
267.348	0.712044
269.15	0.13485
270.951	-0.081666
272.752	-0.0340939
274.552	0.422004
276.353	0.321952
278.152	1.06353
279.952	0.140491
281.751	0.444041
283.55	-0.216699
285.348	0.227556
287.146	-0.289875
288.942	0.104865
290.739	-0.219021
292.536	-0.134155
294.333	-0.143537
296.129	0.87664
297.925	-0.038722
299.721	0.839
301.516	0.545688
303.311	0.538259
305.106	0.267088
306.9	0.973158
308.694	-0.157295
310.486	0.286472
312.279	0.350012
314.072	0.843822
315.864	0.434675
317.656	-0.139374
319.448	-0.331027
321.24	0.455496
323.029	0.313562
324.819	-0.01894
326.61	0.173556
328.4	0.0793676
330.19	0.0800419
331.977	0.653561
333.766	0.0773811
335.555	-0.237952
337.343	0.186278
339.131	0.799678
340.917	0.0718384
342.704	-0.225957
344.491	0.384391
346.277	-0.0323095
348.062	-0.185423
349.848	0.330478
351.633	-0.299458
353.416	0.335032
355.201	0.324059
356.986	-0.141255
358.77	0.0121822
360.552	0.450048
362.335	1.2195
364.118	0.0847435
365.899	0.162748
367.682	0.619594
369.464	0.173625
371.243	0.319853
373.025	0.228446
374.806	0.113221
376.585	-0.143343
378.365	0.0255823
380.143	-0.111227
381.923	0.294683
383.702	0.183774
385.479	0.379866
387.258	-0.0809546
389.034	-0.258499
390.812	-0.0122814
392.59	0.0467653
394.365	0.0828886
396.142	-0.538203
397.916	0.249874
399.693	-0.371389
401.467	0.275212
403.242	0.169584
405.015	0.157141
406.79	0.261367
408.565	-0.292451
410.337	0.209876
412.111	-0.0389767
413.882	0.3227
415.656	-0.370877
417.426	-0.00784492
419.197	0.0507612
420.969	0.0861511
422.739	0.285597
424.51	-0.149457
426.279	0.963982
428.05	0.174999
429.819	0.113272
431.589	0.00455666
433.356	-0.150831
435.124	0.163465
436.893	-0.0620737
438.66	0.838208
440.428	-0.328095
442.194	0.216641
443.96	0.078887
445.727	0.00975609
447.492	0.173576
449.259	0.243066
451.023	0.546117
452.787	0.171977
454.553	0.521728
456.316	0.241597
458.079	0.124754
459.844	-0.154779
461.606	-0.200777
463.368	-0.129121
465.132	0.200268
466.893	0.416143
468.654	0.00718975
470.415	0.460135
472.177	-0.365616
473.937	-0.191879
475.696	1.02844
477.456	0.0108013
479.217	0.482046
480.975	0.672671
482.733	0.304391
484.491	0.100251
486.251	0.503578
488.008	0.582991
489.765	0.431293
491.522	0.327066
493.278	0.597121
495.036	0.914643
496.791	0.764463
498.546	0.449667
500.301	0.368326
502.056	0.567824
503.81	0.884162
505.566	0.941211
507.319	0.97335
509.073	0.651023
510.825	0.303331
512.578	0.542247
514.33	0.356101
516.082	0.686176
517.833	0.591518
519.587	0.237302
521.337	0.658006
523.088	0.819441
524.838	0.393673
526.588	0.484391
528.337	0.457774
530.087	1.11065
531.835	0.73184
533.584	0.656927
535.332	0.651088
537.08	0.386759
538.827	0.214903
540.574	0.392037
542.321	0.567935
544.068	0.929103
545.814	0.545765
547.56	0.0474472
549.305	0.871866
551.05	0.282095
552.795	0.780927
554.54	0.654985
556.284	0.691129
558.027	0.335537
559.771	0.695288
561.514	-0.119056
563.257	0.195518
564.999	-0.156416
566.742	-0.0938396
568.481	0.52038
570.223	0.377724
571.964	0.0529528
573.705	0.647402
575.445	0.0965519
577.185	-0.200498
578.925	0.697182
580.665	0.493999
582.402	0.428579
584.141	0.201637
585.879	0.249487
587.617	0.0660887
589.355	0.57165
591.092	0.0869904
592.828	-0.19115
594.564	-0.0553379
596.301	0.287538
598.037	0.33127
599.773	-0.1545
601.506	-0.479956
603.242	0.113465
604.976	-0.260437
606.711	0.145998
608.443	0.55118
610.177	0.519634
611.91	0.511497
613.644	0.664619
615.374	0.268239
617.107	-0.196428
618.839	0.140332
620.569	0.223965
622.3	0.214773
624.032	-0.092452
625.761	-0.125162
627.491	0.710636
629.221	-0.0727482
630.949	0.583993
632.679	0.398396
634.408	0.761577
636.135	0.00604248
637.863	0.664074
639.592	0.10971
641.318	-0.127705
643.045	0.088686
644.77	0.394542
646.497	0.449835
648.224	0.438632
649.948	0.0214748
651.674	0.0624943
653.398	0.993703
655.123	0.382569
656.846	0.637883
658.57	0.940289
660.293	0.238946
662.017	0.265575
663.738	0.427148
665.462	0.335032
667.185	0.789792
668.905	0.580652
670.628	0.600816
672.348	0.325375
674.067	0.418375
675.789	0.857417
677.508	1.29857
679.228	1.00585
680.947	0.504662
682.667	0.461004
684.385	1.15181
686.104	0.850964
687.821	0.916836
689.538	0.981601
691.256	0.239368
692.972	0.579147
694.69	0.733872
696.406	0.634263
698.121	0.832781
699.837	0.891799
701.552	0.351636
703.268	1.14419
704.982	1.24593
706.695	1.53056
708.41	1.72254
710.123	0.951453
711.836	1.28015
713.55	1.51643
715.262	0.837965
716.973	1.00543
718.685	1.24112
720.398	0.792785
722.108	1.52953
723.818	0.717894
725.53	0.589491
727.24	1.14243
728.949	0.967782
730.658	0.95169
732.369	1.16169
734.077	0.714948
735.785	1.8513
737.493	0.998698
739.2	0.847717
740.909	1.21638
742.616	1.45056
744.322	1.1005
746.028	1.29229
747.734	1.48536
749.441	0.959938
751.146	1.56051
752.851	1.37518
754.555	0.853738
756.26	1.57125
757.963	1.32276
759.667	1.7739
761.372	1.52793
763.075	1.03395
764.777	1.12607
766.479	1.01387
768.181	1.0128
769.883	1.64273
771.584	1.90896
773.285	1.83448
774.986	1.32989
776.686	1.91115
778.386	1.34058
780.085	2.24143
781.785	2.46527
783.484	2.25947
785.182	1.73547
786.881	1.59379
788.579	1.99212
790.276	1.75333
791.974	2.23528
793.671	1.38241
795.367	1.59107
797.064	1.55231
798.76	1.92065
800.456	1.41257
802.151	1.58139
803.846	1.93069
805.541	1.6951
807.236	1.5937
808.93	1.78316
810.624	1.45502
812.317	2.06821
814.01	2.27651
815.703	2.126
817.394	2.04281
819.086	1.95981
820.778	2.39072
822.47	1.52719
824.161	2.13734
825.852	1.3666
827.543	2.002
829.231	1.66002
830.921	1.41022
832.611	1.40824
834.3	1.87649
835.989	1.67723
837.676	1.99088
839.364	1.49984
841.053	1.31952
842.74	1.741
844.426	1.1789
846.113	1.64536
847.8	1.80085
849.486	1.37731
851.171	1.73937
852.857	1.43169
854.542	1.90969
856.227	1.33285
857.911	1.83298
859.595	1.25219
861.279	0.601198
862.961	1.7051
864.645	1.0508
866.329	1.27433
868.01	1.114
869.692	1.17869
871.375	1.62656
873.055	1.53292
874.737	0.671993
876.418	0.894061
878.097	1.40963
879.778	0.751438
881.457	1.10865
883.137	1.30716
884.817	0.985385
886.495	1.06858
888.174	1.03737
889.851	1.7037
891.53	1.46625
893.206	1.04759
894.884	1.34845
896.562	1.44535
898.237	1.29402
899.914	0.940158
901.589	0.922405
903.265	1.53067
904.94	0.662216
906.615	0.376478
908.289	0.60481
909.964	1.07841
911.637	1.06249
913.31	0.7584
914.984	0.788291
916.656	0.840391
918.33	0.936647
920.001	1.51997
921.674	0.686977
923.345	0.983826
925.015	0.464529
926.687	1.11778
928.357	1.06592
930.028	1.08156
931.698	0.899349
933.366	1.00426
935.037	0.822588
936.705	1.50153
938.373	1.32117
940.043	0.524478
941.71	0.103784
943.379	0.963433
945.046	0.962617
946.712	1.44633
948.378	0.979054
950.046	0.35549
951.711	0.481194
953.376	0.562743
955.043	0.800083
956.708	1.08422
958.372	1.52617
960.036	0.294008
961.701	1.00554
963.364	0.325443
965.027	0.90359
966.69	0.860132
968.354	0.548352
970.016	-0.00882053
971.678	0.893195
973.339	0.93283
975	0.951793
976.661	0.773554
978.324	0.464043
979.984	0.498038
981.644	0.53171
983.303	1.15077
984.962	1.32518
986.621	1.20966
988.282	1.51269
989.94	0.752709
991.598	0.589589
993.256	-0.147776
994.913	0.947982
996.57	0.410044
998.227	0.820823
999.884	0.569831
1001.54	1.44189
1003.2	0.859902
1004.85	0.76221
1006.51	0.928244
1008.16	0.567141
1009.82	0.645761
1011.47	0.900162
1013.12	1.11089
1014.78	1.21225
1016.43	0.416398
1018.08	0.628407
1019.74	1.65024
1021.39	0.726575
1023.04	1.00678
1024.69	0.566685
1026.34	0.739177
1028	1.13017
1029.65	0.843216
1031.3	0.664373
1032.95	0.811535
1034.6	0.345986
1036.25	0.729982
1037.9	0.655094
1039.55	0.689068
1041.19	0.310382
1042.84	0.563876
1044.49	1.10127
1046.14	1.35793
1047.79	0.704374
1049.43	0.421783
1051.08	0.944075
1052.73	0.96773
1054.37	0.144341
1056.02	0.668155
1057.66	0.561494
1059.31	0.628266
1060.95	1.19455
1062.6	0.216219
1064.24	0.302483
1065.88	1.06164
1067.53	0.906542
1069.17	0.72882
1070.81	0.919754
1072.46	0.893319
1074.1	0.259865
1075.74	0.734117
1077.38	0.60225
1079.02	0.818651
1080.66	0.406991
1082.3	0.537474
1083.94	0.818873
1085.58	0.361557
1087.22	0.877592
1088.86	0.0484467
1090.5	0.192451
1092.14	0.335051
1093.78	0.908799
1095.42	0.812814
1097.05	0.416049
1098.69	0.538247
1100.33	1.04954
1101.97	0.249707
1103.6	-0.46177
1105.24	0.74262
1106.87	0.140708
1108.51	0.828971
1110.15	0.0753937
1111.78	0.459877
1113.41	0.240941
1115.05	0.10692
1116.68	0.315732
1118.31	0.202803
1119.95	0.326349
1121.58	0.407922
1123.21	0.768718
1124.85	0.146084
1126.48	0.80805
1128.11	0.615131
1129.74	0.572686
1131.37	0.295678
1133	0.254189
1134.63	-0.108034
1136.26	0.149059
1137.89	0.0845528
1139.52	0.382057
1141.15	0.358074
1142.78	0.248261
1144.41	-0.13858
1146.04	0.0298843
1147.66	0.646676
1149.29	0.283949
1150.92	-0.0993872
1152.55	-0.0353146
1154.17	0.220017
1155.8	-0.0572443
1157.43	-0.35572
1159.05	0.175838
1160.68	0.410251
1162.3	0.284247
1163.93	0.43567
1165.55	0.0348129
1167.17	0.186545
1168.8	0.316
1170.42	0.401258
1172.05	0.229607
1173.67	0.205028
1175.29	-0.966381
1176.91	0.153023
1178.54	0.127022
1180.16	0.122906
1181.78	-0.00725174
1183.4	-0.0308781
1185.02	0.0723696
1186.64	0.406892
1188.26	-0.020215
1189.88	-0.617044
1191.5	0.0909891
1193.12	0.186077
1194.74	0.175124
1196.36	0.164225
1197.97	0.384571
1199.59	-0.000409126
1201.21	-0.0480127
1202.83	0.241079
1204.44	0.114997
1206.06	0.199738
1207.68	0.494384
1209.29	0.538957
1210.91	0.207341
1212.52	0.0410757
1214.14	0.664689
1215.75	-0.318031
1217.37	0.19701
1218.98	-0.536794
1220.6	0.516077
1222.21	0.654999
1223.82	0.50484
1225.44	0.584186
1227.05	0.313173
1228.66	0.850469
1230.27	1.24389
1231.88	0.253408
1233.49	1.00059
1235.1	0.591554
1236.72	1.01047
1238.33	0.769021
1239.94	0.859014
1241.55	1.11473
1243.16	1.24612
1244.76	1.12848
1246.37	1.13394
1247.98	0.848673
1249.59	1.03856
1251.2	1.06258
1252.8	1.60394
1254.41	0.842895
1256.02	1.36538
1257.63	1.70308
1259.23	1.83524
1260.84	1.43026
1262.44	1.31541
1264.05	1.44911
1265.66	1.33383
1267.26	0.865356
1268.87	1.61893
1270.47	1.56299
1272.07	1.19494
1273.68	1.30271
1275.28	1.72035
1276.88	1.14213
1278.48	1.55777
1280.09	1.64113
1281.69	1.7034
1283.29	1.22785
1284.89	1.9113
1286.49	1.64427
1288.09	1.70919
1289.69	1.91973
1291.3	1.88282
1292.9	2.38305
1294.49	1.91141
1296.09	1.81036
1297.69	2.0999
1299.29	2.24291
1300.89	1.97174
1302.49	2.48241
1304.09	1.7769
1305.68	1.87378
1307.28	1.96992
1308.88	1.4911
1310.47	1.46417
1312.07	2.13373
1313.66	1.47339
1315.26	1.48962
1316.86	1.18013
1318.45	1.54499
1320.05	1.72571
1321.64	1.33487
1323.23	1.83858
1324.83	1.44504
1326.42	1.3149
1328.01	1.36699
1329.61	2.06739
1331.2	1.61502
1332.79	1.99432
1334.38	1.44663
1335.98	1.64799
1337.57	1.56737
1339.16	1.70792
1340.75	2.08827
1342.34	1.58029
1343.93	1.35269
1345.52	1.22488
1347.11	1.45838
1348.7	0.691562
1350.29	1.00928
1351.87	1.04905
1353.46	1.31077
1355.05	1.39377
1356.64	1.23734
1358.23	1.69985
1359.81	1.46216
1361.4	1.54292
1362.99	1.20381
1364.57	1.10396
1366.16	1.42287
1367.74	1.26431
1369.33	0.888146
1370.91	1.42906
1372.5	1.61303
1374.08	1.10173
1375.67	1.18806
1377.25	1.2944
1378.83	0.783399
1380.42	0.729101
1382	1.56873
1383.58	1.25315
1385.16	1.17533
1386.75	0.898432
1388.33	1.31696
1389.91	0.862405
1391.49	0.686869
1393.07	0.770097
1394.65	0.357833
1396.23	0.857726
1397.81	1.11879
1399.39	1.29942
1400.97	0.647089
1402.55	0.925198
1404.13	0.846857
1405.7	0.63068
1407.28	0.830587
1408.86	0.715044
1410.44	1.05438
1412.01	0.722114
1413.59	0.961946
1415.17	1.14151
1416.74	0.984794
1418.32	0.551916
1419.89	1.14415
1421.47	0.831108
1423.05	0.95286
1424.62	1.19427
1426.19	0.492172
1427.77	1.22742
1429.34	1.19481
1430.92	1.18099
1432.49	1.26443
1434.06	1.46489
1435.63	1.6451
1437.2	1.4715
1438.78	1.22009
1440.35	1.71659
1441.92	1.68337
1443.49	1.51329
1445.06	1.67772
1446.63	2.3534
1448.2	1.81059
1449.77	1.91672
1451.34	2.4166
1452.91	2.40591
1454.48	2.29726
1456.05	2.03113
1457.62	1.96101
1459.18	2.14542
1460.75	1.59989
1462.32	1.54451
1463.89	1.4875
1465.45	1.74391
1467.02	1.90143
1468.59	1.43087
1470.15	1.33451
1471.72	1.25896
1473.28	0.635343
1474.85	1.46382
1476.41	0.606271
1477.98	1.3174
1479.54	0.891374
1481.11	1.26893
1482.67	1.09759
1484.23	0.749811
1485.8	0.950344
1487.36	0.836684
1488.92	0.604376
1490.48	0.116201
1492.05	0.252363
1493.61	0.640217
1495.17	0.81092
1496.73	-0.0135622
1498.29	0.23409
1499.85	0.364992
1501.41	0.515978
1502.97	0.628959
1504.53	0.66507
1506.09	0.449723
1507.65	0.969097
1509.2	0.732985
1510.76	0.669955
1512.32	0.317153
1513.88	-0.0543509
1515.44	0.42099
1516.99	0.703708
1518.55	0.104396
1520.1	0.65629
1521.66	0.48007
1523.22	0.552416
1524.77	0.12748
1526.33	0.865773
1527.88	1.04902
1529.44	0.964992
1530.99	0.919131
1532.55	1.00662
1534.1	0.77281
1535.65	1.2404
1537.21	0.423096
1538.76	0.835017
1540.31	0.775077
1541.86	1.31818
1543.42	0.749734
1544.97	1.08468
1546.52	1.34361
1548.07	1.09523
1549.62	1.09099
1551.17	0.54391
1552.72	0.559569
1554.27	1.54795
1555.82	1.26614
1557.37	1.13575
1558.92	1.69777
1560.47	1.32866
1562.02	1.44624
1563.57	1.43437
1565.11	2.00149
1566.66	1.48649
1568.21	1.75501
1569.75	1.6872
1571.3	2.02964
1572.85	1.71845
1574.39	1.87376
1575.94	1.80508
1577.49	1.77393
1579.03	1.78052
1580.58	2.19851
1582.12	1.47822
1583.67	1.91663
1585.21	1.94495
1586.75	1.899
1588.3	2.05889
1589.84	2.31226
1591.38	2.50919
1592.93	2.12527
1594.47	2.04047
1596.01	2.1992
1597.55	2.13354
1599.09	2.2185
1600.63	2.06039
1602.18	1.73368
1603.72	1.89484
1605.26	2.0179
1606.8	1.76381
1608.34	1.50764
1609.87	1.60629
1611.41	1.83414
1612.95	1.89078
1614.49	1.72079
1616.03	2.26328
1617.57	1.98078
1619.11	1.51242
1620.64	1.73885
1622.18	1.87289
1623.72	2.06387
1625.25	1.56226
1626.79	1.39694
1628.32	1.73559
1629.86	2.05387
1631.4	1.86611
1632.93	1.93963
1634.47	1.60266
1636	2.53555
1637.53	1.51032
1639.07	1.92201
1640.6	1.94208
1642.14	1.86837
1643.67	2.27775
1645.2	2.49931
1646.73	2.38487
1648.27	2.64186
1649.8	2.84316
1651.33	2.22874
1652.86	2.43236
1654.39	2.54427
1655.92	2.30462
1657.45	3.01002
1658.98	2.38053
1660.51	2.21306
1662.04	2.50677
1663.57	2.50306
1665.1	2.59107
1666.63	2.69774
1668.16	1.69883
1669.69	1.80854
1671.21	2.15915
1672.74	1.81068
1674.27	2.16265
1675.79	1.72255
1677.32	2.05491
1678.85	1.0246
1680.37	1.75935
1681.9	1.75749
1683.42	1.62675
1684.95	1.23931
1686.47	2.04471
1688	1.18171
1689.52	1.38251
1691.05	1.58333
1692.57	0.997103
1694.1	1.19791
1695.62	0.593934
1697.14	1.0684
1698.66	0.245435
1700.19	0.773567
1701.71	0.844581
1703.23	1.09719
1704.75	0.274464
1706.27	0.544345
1707.79	0.395372
1709.32	0.301049
1710.83	0.878417
1712.35	0.439528
1713.88	0.490674
1715.39	0.360758
1716.91	0.375684
1718.43	0.788054
1719.95	0.513461
1721.47	0.672482
1722.99	0.633433
1724.5	0.108887
1726.02	0.54047
1727.54	-0.107161
1729.06	0.578112
1730.57	0.471043
1732.09	0.258101
1733.61	0.346626
1735.12	1.11156
1736.64	0.119064
1738.15	0.0473385
1739.67	0.351408
1741.18	0.41454
1742.7	0.212563
1744.21	0.315521
1745.72	0.243599
1747.24	0.559696
1748.75	0.0660801
1750.26	0.216922
1751.78	0.341043
1753.29	-0.192
1754.8	-0.179667
1756.31	0.211927
1757.82	0.239751
1759.34	-0.0116625
1760.85	0.299279
1762.36	0.0980415
1763.87	-0.00746632
1765.38	0.274377
1766.89	0.34971
1768.4	0.446259
1769.91	0.160667
1771.41	0.836032
1772.92	0.0730276
1774.43	-0.0193262
1775.94	0.0126247
1777.45	0.191124
1778.96	0.476637
1780.46	0.151137
1781.97	0.119883
1783.48	0.0861893
1784.98	0.0501108
1786.49	0.124373
1788	0.0622864
1789.5	0.00272942
1791.01	0.323664
1792.51	-0.0163965
1794.01	0.450766
1795.52	0.0975752
1797.02	0.103991
1798.53	-0.177926
1800.03	-0.0455475
1801.54	-0.0271034
1803.04	-0.203418
1804.54	0.191055
1806.04	-0.498771
1807.54	0.181363
1809.05	0.222334
1810.55	-0.107975
1812.05	0.140186
1813.55	0.0114651
1815.05	0.148151
1816.55	0.317995
1818.05	0.107947
1819.55	0.126241
1821.05	0.377923
1822.55	0.118073
1824.05	0.148971
1825.55	0.323112
1827.05	0.245924
1828.55	0.198277
1830.04	0.0670233
1831.54	0.00932503
1833.04	0.339544
1834.54	0.0663233
1836.03	0.070673
1837.53	0.25163
1839.03	0.065731
1840.52	0.124466
1842.02	-0.260616
1843.51	0.294713
1845.01	0.250724
1846.5	-0.110855
1848	-0.0668964
1849.49	0.0417814
1850.99	0.246126
1852.48	-0.0621538
1853.97	0.114736
1855.47	0.214713
1856.96	0.0935402
1858.45	-0.0114279
1859.94	0.231318
1861.44	0.119375
1862.93	-0.125142
1864.42	0.0348091
1865.91	0.0790634
1867.4	0.0228481
1868.89	0.155802
1870.38	0.345903
1871.87	-0.023119
1873.36	0.194272
1874.85	0.0437069
1876.34	0.00832081
1877.83	-0.197612
1879.32	-0.209776
1880.81	-0.0579758
1882.3	-0.038559
1882.56	-0.0417843
1884.06	0.358313
1885.55	-0.0790396
1887.04	0.127667
1888.54	-0.0144339
1890.03	0.0177698
1891.52	0.137766
1893.02	-0.140787
1894.51	-0.087378
1896	0.0716791
1897.49	0.0575819
1898.99	0.112935
1900.48	-0.441507
1901.97	0.550884
1903.46	0.115232
1904.95	0.59991
1906.44	-0.202285
1907.93	0.402894
1909.42	0.00132942
1910.91	-0.12149
1912.4	0.242236
1913.89	0.58895
1915.38	0.224647
1916.86	0.362938
1918.35	0.136691
1919.84	0.0834398
1921.33	0.203351
1922.82	-0.265179
1924.3	0.0290003
1925.79	-0.00482082
1927.28	0.0488348
1928.76	0.120361
1930.25	0.105266
1931.74	0.470413
1933.22	0.332042
1934.71	0.192114
1936.19	0.0508041
1937.67	0.167961
1939.16	-0.147392
1940.64	-0.0994678
1942.13	0.138963
1943.61	0.102084
1945.09	-0.106456
1946.58	-0.15941
1948.06	-0.195313
1949.54	-0.00789738
1951.03	0.247335
1952.51	0.312176
1953.99	0.204459
1955.47	0.303017
1956.95	-0.164887
1958.43	-0.133934
1959.91	0.0863037
1961.39	0.0153131
1962.87	0.0302429
1964.35	-0.0235491
1965.83	-0.129115
1967.31	0.0557804
1968.79	0.256977
1970.27	0.0984421
1971.75	-0.128435
1973.22	0.22526
1974.7	0.254475
1976.18	0.164498
1977.66	0.0407319
1979.13	-0.304068
1980.61	-0.0531092
1982.09	0.520311
1983.56	0.243361
1985.04	-0.0165277
1986.52	0.0968728
1987.99	0.0914593
1989.47	0.120194
1990.94	-0.0028162
1992.41	-0.006464
1993.89	0.193621
1995.36	0.0224857
1996.84	0.0883508
1998.31	0.171011
1999.78	0.253216
2001.26	0.0648112
2002.73	0.466455
2004.2	0.24384
2005.67	0.409297
2007.15	-0.233187
2008.62	0.775732
2010.09	0.0677915
2011.56	0.353685
2013.03	0.437568
2014.5	0.234938
2015.97	-0.304782
2017.44	-0.441311
2018.91	-0.0404825
2020.38	0.208275
2021.85	0.439857
2023.32	-0.0670233
2024.79	0.0648007
2026.25	-0.0540285
2027.72	0.348363
2029.19	0.165032
2030.66	0.0163836
2032.13	0.489411
2033.59	0.00629425
2035.06	0.530417
2036.53	0.214589
2037.99	0.234159
2039.46	-0.0827494
2040.92	0.222141
2042.39	-0.0609932
2043.85	0.0936842
2045.32	0.249269
2046.78	0.304662
2048.25	0.377222
2049.71	0.483258
2051.18	0.369246
2052.64	-0.049819
2054.1	0.423288
2055.56	0.405729
2057.03	0.252077
2058.49	0.856099
2059.95	0.381509
2061.42	0.0928783
2062.88	0.613115
2064.34	0.427207
2065.8	0.0571356
2067.26	0.546099
2068.72	0.0931273
2070.18	0.178984
2071.64	0.53428
2073.1	0.771671
2074.56	0.419486
2076.02	0.706867
2077.48	0.471871
2078.94	0.472268
2080.39	0.590111
2081.85	0.252834
2083.31	0.723038
2084.77	0.55286
2086.22	0.718542
2087.68	0.614485
2089.14	0.694997
2090.6	0.808834
2092.05	1.19109
2093.51	1.03591
2094.96	1.28312
2096.42	0.725066
2097.87	1.03802
2099.33	0.814389
2100.78	0.891806
2102.24	0.952616
2103.69	0.863856
2105.15	1.11021
2106.6	0.90725
2108.05	0.93891
2109.51	1.271
2110.96	1.0356
2112.41	1.03235
2113.86	0.944213
2115.32	1.37048
2116.77	1.19669
2118.22	1.37233
2119.67	1.66523
2121.12	1.67773
2122.57	1.34394
2124.02	1.60868
2125.47	1.69161
2126.92	1.69134
2128.37	1.77292
2129.82	1.80331
2131.27	1.8489
2132.72	2.02604
2134.17	2.03753
2135.62	2.18213
2137.06	2.29513
2138.51	2.34398
2139.96	2.42792
2141.41	2.28224
2142.85	1.93928
2144.3	2.63897
2145.75	2.71047
2147.19	2.54989
2148.64	3.08412
2150.09	2.80589
2151.53	2.80811
2152.97	2.84236
2154.42	3.14078
2155.86	3.52147
2157.31	3.07394
2158.75	2.95858
2160.2	3.12635
2161.64	2.20247
2163.08	2.82171
2164.53	3.07835
2165.97	2.98763
2167.41	3.04618
2168.86	2.93736
2170.3	2.69335
2171.74	3.07904
2173.18	2.76392
2174.62	2.91306
2176.06	2.79545
2177.5	3.24344
2178.94	2.76116
2180.38	3.02816
2181.82	2.84724
2183.26	2.94963
2184.7	2.86939
2186.14	2.55631
2187.58	2.62583
2189.02	2.81193
2190.46	3.04801
2191.89	2.01858
2193.33	2.61981
2194.77	2.58694
2196.21	2.16927
2197.64	2.09918
2199.08	2.77559
2200.52	2.36999
2201.95	1.93166
2203.39	1.95917
2204.83	2.02095
2206.26	2.76324
2207.7	2.19671
2209.13	2.60745
2210.57	1.82527
2212	1.90306
2213.43	1.68246
2214.87	1.66025
2216.3	1.75425
2217.73	1.76681
2219.17	1.53327
2220.6	2.12503
2222.03	1.52994
2223.47	1.37933
2224.9	1.47448
2226.33	1.40325
2227.76	1.36338
2229.19	1.81499
2230.62	1.59226
2232.05	1.32066
2233.49	1.00084
2234.91	0.74784
2236.34	1.62364
2237.77	1.03043
2239.2	1.0761
2240.63	1.10736
2242.06	0.683679
2243.49	0.978815
2244.92	1.09488
2246.35	0.94932
2247.78	1.0469
2249.2	1.09343
2250.63	0.649055
2252.06	0.708315
2253.48	0.799234
2254.91	0.581608
2256.34	0.122164
2257.76	0.995907
2259.19	0.76862
2260.61	0.755014
2262.04	0.694973
2263.46	0.685062
2264.89	0.756661
2266.31	0.665386
2267.74	0.199108
2269.16	0.952209
2270.59	0.370171
2272.01	0.943468
2273.43	0.767693
2274.85	0.624506
2276.28	0.742152
2277.7	0.224396
2279.12	0.521554
2280.54	0.231769
2281.97	0.789899
2283.39	0.287765
2284.81	0.731916
2286.23	0.29506
2287.65	-0.304994
2289.07	0.303627
2290.49	0.504563
2291.91	0.37898
2293.33	0.580485
2294.75	0.242213
2296.17	-0.0964241
2297.59	0.285141
2299.01	0.0773058
2300.42	0.279209
2301.84	0.137201
2303.26	0.126555
2304.68	0.362264
2306.1	0.187572
2307.51	0.291727
2308.93	0.148917
2310.35	0.202817
2311.76	0.223508
2313.18	0.293557
2314.59	0.314645
2316.01	-0.0917287
2317.43	0.408335
2318.84	0.266432
2320.26	-0.288193
2321.67	0.624289
2323.08	0.512328
2324.5	0.36521
2325.91	0.0511484
2327.33	0.824224
2328.74	0.508083
2330.15	-0.0545731
2331.56	0.0591149
2332.98	-0.270676
2334.39	0.00922918
2335.8	0.338565
2337.21	0.108163
2338.62	0.238731
2340.04	0.121692
2341.45	-0.160255
2342.86	0.0992942
2344.27	0.194478
2345.68	-0.0707645
2347.09	-0.1225
2348.5	0.0877552
2349.91	0.0847487
2351.31	-0.131427
2352.72	-0.0541224
2354.13	0.120133
2355.54	0.114151
2356.95	0.059051
2358.36	-0.0122056
2359.76	0.0467682
2361.17	-0.153966
2362.58	0.0996623
2363.98	-0.116995
2365.39	0.119741
2366.8	0.000615597
2368.21	-0.860394
2369.61	0.0231237
2371.02	0.277747
2372.42	0.194933
2373.83	-0.0479302
2375.23	-0.0488186
2376.64	0.223474
2378.04	-0.068265
2379.44	-0.152069
2380.85	-0.0445175
2382.25	0.0135045
2383.66	0.0706167
2385.06	-0.0965328
2386.46	0.128502
2387.86	0.274032
2389.26	-0.113762
2390.67	0.360464
2392.07	0.341536
2393.47	-0.312902
2394.87	0.290425
2396.27	-0.218963
2397.67	-0.298354
2399.07	0.00411797
2400.47	0.16392
2401.87	-0.311394
2403.27	0.0392919
2404.67	0.198996
2406.07	0.199114
2407.47	0.372952
2408.87	0.577646
2410.27	0.0209961
2411.67	0.0671544
2413.07	0.0506511
2414.46	0.0827765
2415.86	0.147843
2417.26	0.150755
2418.66	0.186134
2420.05	0.126819
2421.45	0.20994
2422.84	-0.0240784
2424.24	0.375393
2425.64	0.426402
2427.03	0.113374
2428.43	-0.0721965
2429.82	0.0759797
2431.22	0.00275135
2432.61	0.151819
2434.01	0.0623293
2435.4	-0.139408
2436.79	0.0388365
2438.19	0.295214
2439.58	0.185032
2440.97	-0.14821
2442.37	-0.211821
2443.76	-0.132805
2445.15	0.279083
2446.54	-0.00710058
2447.93	0.22981
2449.33	0.26058
2450.72	0.228202
2452.11	0.52871
2453.5	0.228475
2454.89	0.229727
2456.28	0.152505
2457.67	0.534287
2459.06	0.378105
2460.45	0.142362
2461.84	0.0799165
2463.23	0.0800414
2464.62	0.0954614
2466	0.110615
2467.39	-0.0163889
2468.78	-0.0486546
2470.17	0.0135612
2471.55	0.248705
2472.94	0.0734
2474.33	0.212495
2475.72	-0.34129
2477.1	0.315704
2478.49	-0.174808
2479.87	-0.0837936
2481.26	0.289454
2482.65	-0.0272951
2484.03	0.219604
2485.42	-0.12901
2486.8	-0.0717001
2488.19	-0.358737
2489.57	0.367275
2490.95	0.297562
2492.34	0.0886059
2493.72	-0.258654
2495.1	0.326645
2496.49	0.183571
2497.87	0.196352
2499.25	0.0236058
2500.63	-0.0409255
2502.02	0.0639648
2503.4	0.198705
2504.78	0.301544
2506.16	0.126283
2507.54	0.274397
2508.92	-0.23874
2510.3	-0.33577
2511.68	-0.247969
2513.06	0.300176
2514.44	0.128315
2515.82	0.217671
2517.2	0.108745
2518.58	0.199164
2519.96	-0.153502
2521.34	0.104872
2522.72	0.118164
2524.1	0.0239372
2525.47	-0.0402799
2526.85	-0.0284743
2528.23	-0.0315418
2529.6	0.042377
2530.98	0.345563
2532.36	-0.200842
2533.74	-0.0926156
2535.11	0.183313
2536.49	0.124953
2537.86	-0.131469
2539.24	0.0214424
2540.61	0.15838
2541.99	0.127968
2543.36	0.113004
2544.74	0.159473
2546.11	-0.0508389
2547.49	0.179794
2548.86	0.0167584
2550.23	0.0358
2551.61	-0.0518064
2552.98	0.451671
2554.35	0.180255
2555.72	0.226747
2557.09	0.318233
2558.47	0.136628
2559.84	0.213063
2561.21	0.153531
2562.58	0.00364876
2563.95	0.0361338
2565.32	0.0992951
2566.69	0.299059
2568.06	-0.273996
2569.43	0.0167894
2570.8	0.428863
2572.17	0.295341
2573.54	-0.11098
2574.91	-0.229243
2576.28	0.12249
2577.65	-0.0413046
2579.02	0.173762
2580.39	0.252064
2581.75	0.0570726
2583.12	0.149852
2584.49	0.166613
2585.85	-0.0440464
2587.22	0.154669
2588.59	-0.237551
2589.95	-0.114373
2591.32	0.0692873
2592.68	0.191897
2594.05	-0.473952
2595.42	0.116624
2596.78	0.0398493
2598.15	0.113753
2599.51	-0.00929022
2600.88	-0.298302
2602.24	0.183615
2603.6	-0.224965
2604.97	-0.255516
2606.33	0.0761271
2607.69	-0.0149612
2609.06	0.0741558
2610.42	0.222373
2611.78	0.173571
2613.14	0.394487
2614.51	0.328888
2615.87	-0.216959
2617.23	-0.0419755
2618.59	0.0133705
2619.95	0.144104
2621.31	-0.0536857
2622.67	0.00326014
2624.03	-0.0143418
2625.39	0.191854
2626.75	0.248431
2628.11	0.14072
2629.47	0.0477958
2630.83	0.549939
2632.19	0.39709
2633.55	0.140463
2634.91	0.210741
2636.26	0.117748
2637.62	0.173068
2638.98	0.0950904
2640.34	0.12093
2641.69	0.235649
2643.05	0.173172
2644.41	0.0223408
2645.76	0.196198
2647.12	0.266253
2648.48	-0.0768337
2649.83	0.242182
2651.19	0.00135708
2652.54	0.260063
2653.9	0.0343146
2655.25	0.439899
2656.6	0.157437
2657.96	0.0812826
2659.31	-0.0964236
2660.67	0.194264
2662.02	-0.0123544
2663.37	0.116666
2664.73	0.0988569
2666.08	0.124177
2667.43	0.265626
2668.78	-0.0300665
2670.14	0.242384
2671.49	0.10779
2672.84	0.148275
2674.19	0.523246
2675.54	0.375814
2676.89	0.127468
2678.24	0.184446
2679.59	0.0971189
2680.94	0.387667
2682.29	0.0268202
2683.64	0.377453
2684.99	-0.0106716
2686.34	0.181737
2687.69	0.156381
2689.04	0.18805
2690.39	0.102116
2691.74	0.333943
2693.08	0.114533
2694.43	0.416508
2695.78	0.152807
2697.13	-0.0231819
2698.47	0.410257
2699.82	0.048636
2701.17	-0.00741625
2702.51	0.314376
2703.86	0.24604
2705.21	0.207079
2706.55	0.371175
2707.9	0.477136
2709.24	0.0311737
2710.58	0.368734
2711.93	0.473855
2713.27	-0.0895338
2714.62	0.306026
2715.96	0.425498
2717.3	0.079484
2718.65	0.431364
2719.99	0.331983
2721.33	0.0720706
2722.68	0.379309
2724.02	0.409608
2725.36	0.424959
2726.71	0.236194
2728.05	0.163597
2729.39	0.265425
2730.73	0.323444
2732.07	0.468705
2733.41	0.0321259
2734.75	0.352142
2736.09	0.20685
2737.43	0.687064
2738.77	0.396412
2740.11	0.149191
2741.45	0.0615411
2742.79	0.22049
2744.13	0.524072
2745.47	0.260314
2746.81	0.475589
2748.14	0.26957
2749.48	0.121791
2750.82	0.278861
2752.16	0.392526
2753.49	0.259932
2754.83	0.344887
2756.17	0.0533218
2757.5	0.196443
2758.84	0.021234
2760.18	-0.0812135
2761.51	0.033833
2762.85	-0.0678005
2764.18	-0.053422
2765.52	0.134547
2766.85	0.293143
2768.19	0.147119
2769.52	-0.115613
2770.86	-0.133662
2772.19	0.280385
2773.52	0.245602
2774.86	0.138313
2776.19	0.276031
2777.52	0.385031
2778.86	0.336161
2780.19	0.01478
2781.52	0.0818286
2782.85	-0.0807667
2784.19	0.129663
2785.52	-0.13316
2786.85	0.234704
2788.18	-0.0702224
2789.51	0.484269
2790.84	0.338283
2792.17	0.0500865
2793.5	0.119785
2794.83	0.303802
2796.16	0.0159116
2797.49	-0.286573
2798.82	-0.103861
2800.15	0.163962
2801.48	-0.239156
2802.81	-0.0289702
2804.13	-0.189747
2805.46	0.347138
2806.79	-0.0138688
2808.12	0.0517535
2809.45	0.216392
2810.77	0.125187
2812.1	0.0913982
2813.43	-0.125757
2814.75	0.353189
2816.08	-0.0598783
2817.41	-0.131743
2818.73	0.0803351
2820.06	0.462481
2821.38	0.0363398
2822.71	0.0206518
2824.03	0.372794
2825.36	0.427012
2826.68	0.226337
2828	0.125296
2829.33	0.152168
2830.65	0.703193
2831.98	0.702282
2833.3	0.630528
2834.62	0.558476
2835.94	0.570898
2837.27	0.611119
2838.59	0.735795
2839.91	1.35517
2841.23	1.80466
2842.55	1.5476
2843.87	1.92724
2845.2	1.99662
2846.52	2.23619
2847.84	2.68814
2849.16	2.29209
2850.48	2.54587
2851.8	2.57299
2853.12	2.4441
2854.44	2.44201
2855.76	2.79294
2857.08	2.11251
2858.39	2.32216
2859.71	2.50347
2861.03	2.48685
2862.35	2.83696
2863.67	3.17241
2864.98	3.23931
2866.3	2.68548
2867.62	3.41552
2868.94	3.41249
2870.25	3.72003
2871.57	3.59066
2872.88	3.79926
2874.2	4.34512
2875.52	3.69227
2876.83	4.03837
2878.15	4.79131
2879.46	4.37587
2880.78	4.14394
2882.09	4.58748
2883.41	4.16106
2884.72	4.50815
2886.03	3.76076
2887.35	4.08039
2888.66	4.35729
2889.97	4.22639
2891.29	4.29098
2892.6	4.00448
2893.91	4.27841
2895.22	4.51047
2896.54	5.02315
2897.85	4.4452
2899.16	4.52613
2900.47	4.91565
2901.78	4.57818
2903.09	4.45077
2904.4	4.86901
2905.71	5.03575
2907.02	5.04922
2908.33	5.28738
2909.64	5.34462
2910.95	5.68238
2912.26	6.03423
2913.57	5.95134
2914.88	6.35687
2916.19	6.48042
2917.5	6.56014
2918.81	6.6107
2920.11	6.26945
2921.42	6.7401
2922.73	6.83449
2924.04	7.00032
2925.34	7.48892
2926.65	7.16747
2927.96	7.40521
2929.26	7.44677
2930.57	7.51564
2931.87	7.51404
2933.18	7.87556
2934.49	7.622
2935.79	7.66211
2937.1	7.59059
2938.4	7.30967
2939.7	7.09894
2941.01	7.48966
2942.31	6.60973
2943.62	6.4018
2944.92	6.30711
2946.22	6.07376
2947.53	6.37254
2948.83	6.0414
2950.13	5.93279
2951.43	5.65414
2952.74	5.20538
2954.04	5.46927
2955.34	5.5787
2956.64	5.1572
2957.94	4.79385
2959.24	5.11922
2960.54	4.84539
2961.84	4.54528
2963.15	4.76458
2964.45	4.53431
2965.75	4.52705
2967.05	4.56025
2968.34	4.22656
2969.64	3.87785
2970.94	3.81016
2972.24	3.88342
2973.54	3.26748
2974.84	3.35501
2976.14	3.58275
2977.43	3.45724
2978.73	3.35817
2980.03	3.11664
2981.33	2.95838
2982.62	2.88411
2983.92	2.52904
2985.22	2.66718
2986.51	2.93318
2987.81	2.45584
2989.11	2.16211
2990.4	2.00911
2991.7	1.56048
2992.99	1.71523
2994.29	1.64395
2995.58	1.62785
2996.88	1.68127
2998.17	1.58009
2999.46	1.14258
3000.76	1.02839
3002.05	0.648494
3003.34	0.815675
3004.64	0.85677
3005.93	0.491489
3007.22	0.811845
3008.52	0.725418
3009.81	0.806074
3011.1	0.816077
3012.39	0.434766
3013.68	0.333056
3014.97	0.413079
3016.27	0.674702
3017.56	0.588626
3018.85	0.419623
3020.14	0.376029
3021.43	0.443271
3022.72	0.41244
3024.01	0.214256
3025.3	0.279174
3026.59	0.274537
3027.88	0.242663
3029.16	0.405407
3030.45	0.196228
3031.74	0.333841
3033.03	0.223797
3034.32	0.0451045
3035.6	0.473044
3036.89	0.168664
3038.18	0.138644
3039.47	0.258395
3040.75	-0.0495725
3042.04	0.218926
3043.33	-0.184904
3044.61	0.727092
3045.9	0.202903
3047.18	-0.0177612
3048.47	0.146214
3049.75	0.28464
3051.04	0.206098
3052.32	0.210188
3053.61	0.760067
3054.89	0.477036
3056.18	0.356847
3057.46	0.399353
3058.74	0.236753
3060.03	0.441748
3061.31	0.211424
3062.59	0.335857
3063.88	0.447878
3065.16	0.479715
3066.44	0.308937
3067.72	0.315807
3069	0.0646725
3070.29	0.425292
3071.57	0.445154
3072.85	0.0287638
3074.13	-0.211753
3075.41	0.0227227
3076.69	0.283874
3077.97	0.05653
3079.25	-0.169624
3080.53	-0.20442
3081.81	0.0741439
3083.09	0.109674
3084.37	0.023735
3085.65	-0.211432
3086.93	0.0687513
3088.21	-0.018106
3089.49	0.138769
3090.76	0.145962
3092.04	0.0309615
3093.32	-0.138067
3094.6	0.1001
3095.87	-0.244556
3097.15	-0.0331769
3098.43	-0.0251923
3099.7	0.145306
3100.98	0.180214
3102.26	0.0526977
3103.53	0.169236
3104.81	-0.228118
3106.08	0.200888
3107.36	0.211176
3108.63	-0.278294
3109.91	-0.211954
3111.18	-0.0363703
3112.46	0.14005
3113.73	0.127316
3115	0.0468035
3116.28	0.0201178
3117.55	0.141908
3118.83	-0.076282
3120.1	-0.0376821
3121.37	-0.176085
3122.64	0.0510626
3123.92	-0.142011
3125.19	0.261055
3126.46	0.231154
3127.73	-0.0416827
3129	-0.178572
3130.27	0.144676
3131.55	-0.0862818
3132.82	0.480057
3134.09	0.140749
3135.36	-0.00966024
3136.63	0.109513
3137.9	0.241622
3139.17	0.278975
3140.44	0.00661278
3141.71	0.0575986
3142.98	0.122262
3144.24	0.160453
3145.51	0.212625
3146.78	0.278796
3148.05	0.184772
3149.32	0.225353
