200.398	-0.0710573
202.213	-0.0419903
204.027	-0.0117159
205.843	0.116536
207.657	0.196115
209.47	0.469437
211.283	0.449891
213.097	0.429051
214.909	0.285766
216.721	0.2147
218.533	0.385806
220.344	-0.048027
222.157	0.051507
223.967	0.127362
225.777	-0.0381632
227.587	-0.227782
229.396	0.427426
231.205	0.38148
233.016	0.286922
234.824	-0.145025
236.632	0.123293
238.439	0.0315933
240.247	0.47219
242.053	-0.170188
243.86	0.562974
245.666	-0.272086
247.474	0.291112
249.279	0.36916
251.085	-0.328275
252.889	0.10654
254.694	0.370445
256.498	0.103112
258.301	-0.0429296
260.105	-0.356261
261.908	0.22328
263.71	0.129577
265.513	0.229426
267.315	0.401814
269.116	0.0435781
270.918	0.745215
272.718	0.457308
274.519	0.819007
276.319	-0.0262384
278.119	-0.101587
279.918	0.543911
281.718	0.440585
283.516	-0.193413
285.315	0.277623
287.113	-0.0211182
288.911	-0.0556326
290.708	-0.161444
292.505	0.308349
294.302	-0.10634
296.098	0.556464
297.894	0.526493
299.69	0.425248
301.485	0.897079
303.278	0.627585
305.073	0.0707998
306.867	0.32464
308.661	0.434861
310.454	-0.0264921
312.247	0.180319
314.04	0.412116
315.833	0.192961
317.623	0.61821
319.415	0.401759
321.206	0.329083
322.997	0.280786
324.788	0.495214
326.579	0.136895
328.367	0.255665
330.156	-0.0563288
331.946	0.204333
333.735	0.176605
335.523	0.290593
337.31	0.0436382
339.098	0.464811
340.885	0.525578
342.673	0.226931
344.458	0.310692
346.244	0.753016
348.03	0.144973
349.816	0.253793
351.6	-0.138692
353.385	0.279832
355.17	0.458645
356.953	0.0877228
358.737	-0.021841
360.521	0.344011
362.304	0.232562
364.085	0.0254717
365.868	0.198204
367.65	0.322454
369.431	0.066288
371.212	0.141502
372.994	0.00297546
374.773	-0.111973
376.554	-0.627976
378.332	-0.270032
380.112	0.0171661
381.892	-0.189559
383.669	0.0989552
385.448	0.5997
387.225	0.842496
389.003	0.146449
390.781	0.297039
392.557	0.307322
394.334	0.0128069
396.109	0.0473318
397.885	0.551646
399.66	0.492127
401.436	0.385242
403.211	0.254308
404.984	0.216664
406.759	0.154904
408.532	0.0926151
410.306	0.123936
412.078	-0.173342
413.851	-0.0478611
415.623	0.476993
417.395	0.204701
419.166	0.519541
420.938	0.0366774
422.708	0.328087
424.477	0.501592
426.248	0.768231
428.017	0.353314
429.788	0.571787
431.556	0.250329
433.326	0.562817
435.093	0.21841
436.86	0.108663
438.629	-0.00163794
440.395	0.426611
442.163	-0.226043
443.929	0.503335
445.694	0.667933
447.461	0.339661
449.226	0.292139
450.99	0.011107
452.756	-0.0124259
454.52	0.664018
456.285	0.243925
458.048	0.499734
459.811	0.522465
461.573	0.0108423
463.337	0.546933
465.099	0.155164
466.86	-0.0250874
468.623	0.424319
470.384	0.154781
472.144	0.00181961
473.906	0.290488
475.666	0.205307
477.425	1.05008
479.184	0.42573
480.944	0.639082
482.703	0.619566
484.461	0.0886106
486.218	0.141434
487.975	0.499017
489.734	0.229016
491.491	0.519683
493.247	0.250672
495.003	0.0514941
496.759	0.273207
498.516	0.471673
500.271	0.505943
502.025	0.586665
503.779	0.314441
505.533	0.0408936
507.287	0.353817
509.042	1.01862
510.795	0.176498
512.547	1.00356
514.299	0.276332
516.051	0.653841
517.803	0.30108
519.554	0.888044
521.305	0.345988
523.055	0.837364
524.805	0.365689
526.555	0.246373
528.307	0.736811
530.056	0.781398
531.805	0.450848
533.553	0.798842
535.301	0.747728
537.049	0.55528
538.797	0.198575
540.544	0.191473
542.291	0.230307
544.037	0.291982
545.783	0.91115
547.529	0.345318
549.275	-0.056715
551.02	0.283342
552.765	-0.0711432
554.509	0.568875
556.253	0.19212
557.997	0.139276
559.738	0.363406
561.482	-0.172067
563.224	0.420873
564.967	0.0939898
566.709	-0.0941172
568.451	-0.0747633
570.192	0.0371757
571.933	0.88424
573.674	0.49369
575.415	0.1964
577.153	0.10688
578.893	-0.142323
580.632	-0.138501
582.371	0.347982
584.11	-0.452897
585.849	0.216693
587.587	0.471619
589.323	0.265491
591.06	0.679771
592.797	0.403369
594.534	0.0348063
596.271	0.172431
598.005	-0.495203
599.741	0.286311
601.476	0.0319014
603.211	0.0525756
604.944	-0.0428505
606.679	0.0905552
608.413	0.108329
610.147	0.102994
611.878	0.0521502
613.611	0.139534
615.344	-0.0247207
617.077	0.269522
618.807	0.0822234
620.539	-0.311758
622.27	-0.111447
623.999	0.202225
625.73	0.286969
627.461	0.235439
629.189	0.139869
630.919	0.297201
632.648	-0.0686564
634.376	0.593314
636.105	1.0042
637.833	0.272341
639.559	0.770889
641.287	0.103278
643.013	-0.0411873
644.74	0.587705
646.467	0.23748
648.192	0.230249
649.918	0.316365
651.642	0.337348
653.368	0.270556
655.091	-0.0665956
656.816	0.166706
658.538	0.0365729
660.263	0.225332
661.987	-0.0206642
663.708	0.348222
665.432	0.601253
667.153	0.349759
668.875	0.509187
670.596	0.829292
672.318	0.510437
674.037	0.124525
675.759	0.381481
677.478	0.662896
679.196	0.462739
680.917	0.353388
682.635	0.63354
684.355	-0.0775118
686.072	0.890253
687.791	0.682567
689.508	0.635143
691.224	0.425855
692.942	0.607646
694.658	1.11126
696.376	0.923034
698.091	0.664842
699.805	0.0146275
701.522	0.813033
703.236	0.368589
704.95	0.498354
706.665	1.06355
708.379	0.366246
710.093	-0.0552878
711.806	0.736982
713.518	0.658421
715.23	0.305595
716.943	0.72964
718.655	0.60552
720.366	1.23389
722.078	1.13258
723.788	1.25903
725.498	1.15784
727.208	1.23829
728.919	0.47859
730.628	0.921528
732.337	0.638531
734.045	1.19307
735.755	0.95542
737.463	1.10241
739.17	0.572868
740.877	1.19464
742.584	1.29838
744.292	1.11046
745.998	1.21646
747.704	1.18858
749.409	1.6342
751.114	1.54104
752.819	1.38154
754.526	1.26816
756.23	1.53855
757.934	1.42773
759.637	1.25045
761.34	1.56989
763.043	1.30365
764.746	1.51098
766.448	1.28838
768.152	1.67435
769.853	2.03612
771.554	1.83083
773.255	1.23982
774.956	1.5529
776.656	1.59504
778.356	1.90959
780.056	1.47923
781.755	1.70568
783.454	1.68351
785.153	1.63778
786.851	1.97491
788.549	1.87922
790.247	1.98431
791.944	1.13757
793.641	1.73606
795.338	1.65638
797.034	1.96072
798.73	1.8606
800.426	1.58211
802.121	1.89008
803.817	1.70365
805.511	1.65214
807.206	1.80222
808.9	1.65919
810.592	2.3008
812.286	2.35758
813.979	2.18967
815.672	1.90986
817.364	1.85415
819.057	1.91033
820.748	1.87722
822.44	2.46925
824.129	2.3699
825.82	2.27191
827.511	1.81951
829.201	2.06008
830.891	1.54604
832.581	1.79165
834.269	1.70494
835.958	1.81977
837.646	1.59985
839.335	2.04859
841.023	1.6252
842.709	1.60256
844.396	1.8476
846.084	1.55684
847.77	1.87105
849.455	2.27714
851.141	1.81277
852.827	1.77511
854.513	2.0299
856.196	1.43157
857.881	1.73046
859.566	1.42092
861.248	1.19947
862.932	1.33687
864.616	0.932431
866.297	1.31598
867.98	1.67664
869.663	1.60854
871.343	1.35967
873.026	1.56176
874.707	1.78638
876.387	1.28892
878.068	1.24273
879.747	1.8962
881.428	1.39817
883.108	1.28327
884.786	1.30291
886.465	1.18598
888.143	1.24832
889.822	1.10632
891.498	1.45908
893.177	1.51744
894.855	1.16967
896.53	1.22628
898.208	1.73106
899.883	1.62829
901.56	1.25616
903.234	1.42152
904.91	1.42982
906.584	1.21508
908.26	1.1797
909.933	1.25647
911.608	0.666391
913.28	1.05597
914.955	1.35626
916.627	1.98881
918.298	1.17952
919.972	1.63391
921.643	1.20304
923.315	1.52536
924.986	0.987062
926.656	1.00284
928.328	1.35106
929.997	1.32499
931.668	1.23333
933.337	1.18604
935.006	1.46978
936.676	0.849523
938.344	1.02398
940.012	1.44203
941.681	1.15528
943.348	0.935233
945.014	1.24469
946.683	1.46504
948.349	1.35277
950.015	1.54786
951.682	1.23432
953.347	0.546045
955.012	1.35872
956.676	1.48995
958.343	0.940154
960.006	1.23088
961.67	0.661867
963.333	1.10879
964.998	1.13472
966.661	1.11422
968.323	0.89226
969.985	0.646443
971.649	0.908692
973.31	0.905785
974.971	0.528074
976.632	0.594066
978.293	0.506413
979.953	0.507766
981.615	0.508847
983.274	1.1509
984.933	1.01661
986.592	1.03557
988.251	0.920271
989.909	1.15783
991.567	0.974643
993.225	0.835682
994.884	0.696933
996.541	1.44092
998.198	2.16197
999.855	1.95644
1001.51	1.6407
1003.17	1.17093
1004.82	0.371659
1006.48	0.869973
1008.13	1.19197
1009.79	0.987113
1011.44	0.497787
1013.1	0.338183
1014.75	0.770474
1016.4	0.655293
1018.06	0.912609
1019.71	0.623548
1021.36	0.750936
1023.01	0.332686
1024.66	0.942515
1026.32	0.89711
1027.97	0.436603
1029.62	0.631125
1031.27	0.999321
1032.92	0.841999
1034.57	0.618018
1036.22	0.611239
1037.87	0.451285
1039.52	0.0738087
1041.16	1.13297
1042.81	0.757067
1044.46	0.448162
1046.11	0.901228
1047.76	0.790998
1049.4	0.29121
1051.05	0.443941
1052.7	0.640819
1054.34	0.533875
1055.99	0.665965
1057.63	0.971797
1059.28	0.516353
1060.92	0.603894
1062.57	0.081974
1064.21	0.624799
1065.85	0.775347
1067.5	0.66413
1069.14	0.856341
1070.78	0.939263
1072.43	0.262241
1074.07	0.54085
1075.71	0.0608664
1077.35	-0.0492048
1078.99	0.448861
1080.63	0.578856
1082.27	0.643811
1083.91	0.989941
1085.55	-0.0743628
1087.19	0.0522528
1088.83	1.12993
1090.47	0.473648
1092.11	0.314694
1093.75	0.242012
1095.39	0.579504
1097.03	0.334986
1098.66	0.738133
1100.3	1.05603
1101.94	0.51448
1103.57	0.469513
1105.21	0.511664
1106.84	0.468254
1108.48	0.575177
1110.11	0.315705
1111.75	0.270092
1113.38	0.24474
1115.02	0.218424
1116.65	0.213114
1118.29	0.507992
1119.92	0.674458
1121.55	0.113505
1123.19	0.388631
1124.82	0.300603
1126.45	0.191919
1128.08	-0.129955
1129.71	0.553736
1131.34	0.0832472
1132.97	0.0833817
1134.6	0.0834293
1136.23	0.104383
1137.86	0.231372
1139.49	0.54959
1141.12	0.332975
1142.75	-0.289294
1144.38	0.134225
1146.01	-0.0390739
1147.64	-0.104958
1149.26	-0.297979
1150.89	0.212371
1152.52	0.12624
1154.15	-0.173003
1155.77	-0.0467186
1157.4	-0.005723
1159.02	0.0567694
1160.65	-0.135312
1162.27	-0.198931
1163.9	0.546152
1165.52	0.334866
1167.15	0.569901
1168.77	1.03792
1170.39	-0.174718
1172.02	0.056694
1173.64	0.371422
1175.26	0.430126
1176.89	0.00070858
1178.51	0.482952
1180.13	-0.347363
1181.75	0.114483
1183.37	0.407162
1184.99	-0.187894
1186.61	0.315146
1188.23	0.309813
1189.85	0.387249
1191.47	0.799838
1193.09	-0.00936222
1194.71	0.022831
1196.33	0.0339603
1197.94	0.44357
1199.56	0.686219
1201.18	0.533278
1202.8	0.403615
1204.41	0.401397
1206.03	0.651278
1207.65	0.526657
1209.26	0.861242
1210.88	0.569414
1212.49	0.776765
1214.11	0.461172
1215.72	-0.105668
1217.34	0.179993
1218.95	0.71365
1220.57	1.22531
1222.18	0.616597
1223.79	0.196499
1225.41	0.523632
1227.02	0.334218
1228.63	0.828656
1230.24	0.992914
1231.85	0.723992
1233.47	1.0142
1235.08	0.602693
1236.69	1.37029
1238.3	0.83658
1239.91	0.489314
1241.52	0.907332
1243.13	0.746025
1244.74	0.60474
1246.34	0.793712
1247.95	1.14741
1249.56	0.941772
1251.17	1.41859
1252.78	1.06807
1254.38	0.925035
1255.99	1.36204
1257.6	1.67606
1259.2	1.18423
1260.81	1.08616
1262.42	1.23693
1264.02	1.47071
1265.63	1.14482
1267.23	0.797399
1268.84	1.71373
1270.44	1.36462
1272.04	1.18045
1273.65	1.493
1275.25	1.18276
1276.85	0.913325
1278.46	1.16126
1280.06	0.890832
1281.66	1.40686
1283.26	0.888122
1284.86	0.721797
1286.46	1.13514
1288.07	0.929067
1289.67	0.909817
1291.27	0.870337
1292.87	1.55397
1294.47	1.12128
1296.06	1.86491
1297.66	1.16155
1299.26	1.3653
1300.86	1.4438
1302.46	1.87129
1304.06	1.45337
1305.65	1.24124
1307.25	1.522
1308.85	1.30954
1310.44	1.05653
1312.04	1.439
1313.64	1.61682
1315.23	0.814319
1316.83	1.60653
1318.42	1.70433
1320.02	1.55727
1321.61	1.4708
1323.2	1.52565
1324.8	1.25366
1326.39	1.24506
1327.99	1.25625
1329.58	1.55131
1331.17	1.66497
1332.76	1.51765
1334.36	1.25136
1335.95	1.28951
1337.54	1.40879
1339.13	1.28555
1340.72	1.66467
1342.31	1.05527
1343.9	1.10882
1345.49	1.68328
1347.08	0.953005
1348.67	1.56779
1350.26	0.842603
1351.85	1.18062
1353.43	1.3001
1355.02	0.960931
1356.61	0.941998
1358.2	1.08257
1359.78	1.10246
1361.37	1.16137
1362.96	1.05992
1364.54	1.17758
1366.13	0.578011
1367.71	0.836022
1369.3	1.11468
1370.88	0.578389
1372.47	0.381679
1374.05	1.02158
1375.64	0.806426
1377.22	1.08884
1378.8	0.356024
1380.39	0.637279
1381.97	0.559361
1383.55	0.758868
1385.13	0.718886
1386.72	0.718296
1388.3	0.797248
1389.88	0.638461
1391.46	0.599566
1393.04	0.68036
1394.62	0.285439
1396.2	0.505277
1397.78	0.803759
1399.36	0.605859
1400.94	0.486597
1402.52	0.505557
1404.1	0.603595
1405.68	0.523965
1407.25	0.820622
1408.83	0.485482
1410.41	1.25712
1411.98	0.547292
1413.56	0.824467
1415.14	0.844199
1416.71	1.39568
1418.29	0.92131
1419.87	0.959884
1421.44	0.546394
1423.02	0.665913
1424.59	0.412731
1426.16	0.455804
1427.74	0.814248
1429.31	1.05443
1430.89	1.07738
1432.46	1.51262
1434.03	1.21894
1435.6	1.77071
1437.18	1.88976
1438.75	2.24528
1440.32	2.36575
1441.89	1.68134
1443.46	1.74439
1445.03	1.76849
1446.6	1.96967
1448.17	1.65992
1449.74	1.70423
1451.31	2.10288
1452.88	1.55817
1454.45	2.03646
1456.02	1.78696
1457.59	1.20228
1459.16	1.384
1460.72	2.03658
1462.29	1.54619
1463.86	1.48737
1465.43	1.34904
1466.99	0.719455
1468.56	0.679818
1470.13	0.915649
1471.69	0.642138
1473.26	0.820724
1474.82	0.764559
1476.38	0.865613
1477.95	0.927536
1479.51	0.734573
1481.08	0.89438
1482.64	0.211413
1484.2	0.527848
1485.77	0.569655
1487.33	0.689207
1488.89	0.102879
1490.46	-0.22987
1492.02	0.511628
1493.58	0.214923
1495.14	0.444262
1496.7	0.107116
1498.26	0.0819988
1499.82	0.290572
1501.38	-0.218841
1502.94	0.379138
1504.5	0.395389
1506.06	0.682857
1507.62	0.54385
1509.18	0.404334
1510.73	-0.276046
1512.29	0.509265
1513.85	0.522392
1515.41	0.900825
1516.96	0.184491
1518.52	0.774435
1520.08	0.252558
1521.63	-0.172347
1523.19	0.148913
1524.75	0.468875
1526.3	0.100852
1527.85	-0.000302315
1529.41	0.601945
1530.96	0.348021
1532.52	0.208949
1534.07	0.108797
1535.62	0.350139
1537.18	0.421618
1538.73	0.606759
1540.28	0.527851
1541.84	0.241968
1543.39	0.822316
1544.94	0.592893
1546.49	0.814555
1548.04	0.453975
1549.59	0.506475
1551.14	0.46539
1552.69	0.817626
1554.25	1.11388
1555.79	0.607711
1557.34	0.327562
1558.89	0.683554
1560.44	0.0148005
1561.99	0.67185
1563.54	0.452979
1565.08	0.477084
1566.63	0.445311
1568.18	0.376032
1569.73	1.12775
1571.27	0.871268
1572.82	1.39856
1574.37	1.3284
1575.91	0.810232
1577.46	1.20695
1579	0.633216
1580.55	1.18017
1582.09	0.943555
1583.64	1.4174
1585.18	1.16332
1586.73	1.02165
1588.27	0.711638
1589.81	1.13098
1591.35	0.820281
1592.9	0.902222
1594.44	0.909056
1595.98	1.96513
1597.52	1.72902
1599.06	1.06206
1600.61	0.920332
1602.15	0.96651
1603.69	1.63242
1605.23	1.65968
1606.77	1.49791
1608.31	0.86457
1609.85	0.868426
1611.39	1.30264
1612.93	1.04004
1614.46	1.22713
1616	1.11352
1617.54	0.719224
1619.08	0.963233
1620.61	1.03965
1622.15	0.798812
1623.69	1.23269
1625.23	0.74928
1626.76	0.901794
1628.3	1.29646
1629.83	1.35308
1631.37	1.20319
1632.9	1.65083
1634.44	1.55683
1635.97	1.01581
1637.51	0.904967
1639.04	1.54045
1640.57	1.54189
1642.11	1.80366
1643.64	1.3567
1645.17	1.28145
1646.71	0.703478
1648.24	1.29674
1649.77	2.2051
1651.3	1.96257
1652.83	1.33189
1654.36	1.72242
1655.89	1.98349
1657.42	2.05908
1658.96	2.05988
1660.48	1.80041
1662.01	2.07651
1663.54	2.11089
1665.07	2.08928
1666.6	1.92036
1668.13	1.75259
1669.66	1.64159
1671.19	1.56879
1672.71	1.49697
1674.24	1.75708
1675.77	1.53822
1677.29	1.77895
1678.82	1.74265
1680.35	1.87096
1681.87	1.35535
1683.4	1.40934
1684.92	0.986207
1686.45	1.16907
1687.97	0.692243
1689.5	0.710859
1691.02	0.839512
1692.54	0.711897
1694.07	0.730699
1695.59	0.895612
1697.11	0.712986
1698.64	0.895537
1700.16	0.45703
1701.68	0.401702
1703.2	0.564723
1704.72	0.381084
1706.25	0.524915
1707.77	0.35923
1709.29	0.484388
1710.81	0.337167
1712.33	0.226596
1713.85	0.533041
1715.37	0.458876
1716.89	0.348616
1718.41	0.346878
1719.92	0.507615
1721.44	0.505822
1722.96	0.46839
1724.48	0.0173712
1725.99	0.37815
1727.51	-0.14243
1729.03	0.597705
1730.55	0.528156
1732.06	0.175798
1733.58	0.178011
1735.09	0.135187
1736.61	0.0705252
1738.13	0.325124
1739.64	0.467727
1741.15	0.147121
1742.67	0.395127
1744.18	0.255349
1745.7	0.0796738
1747.21	-0.128062
1748.72	0.0319643
1750.24	0.0656323
1751.75	-0.186869
1753.26	0.132268
1754.77	0.164275
1756.29	0.45193
1757.8	0.0491118
1759.31	0.38656
1760.82	0.36669
1762.33	0.244524
1763.84	0.329357
1765.35	0.188942
1766.86	-0.161796
1768.37	-0.245354
1769.88	-0.0545855
1771.39	0.172574
1772.9	0.0300336
1774.4	0.230752
1775.91	-0.120012
1777.42	0.0768919
1778.93	-0.0634346
1780.44	-0.186945
1781.94	-0.200562
1783.45	-0.051805
1784.96	0.336051
1786.46	-0.0453353
1787.97	-0.0307608
1789.47	0.0617204
1790.98	0.078908
1792.48	0.00760841
1793.99	0.0358067
1795.49	0.0252776
1797	0.080061
1798.5	0.226945
1800.01	0.057096
1801.51	-0.084743
1803.01	0.231538
1804.51	-0.197016
1806.02	-0.111853
1807.52	0.0799074
1809.02	0.156017
1810.52	0.0451055
1812.02	-0.0662951
1813.52	-0.167558
1815.02	0.178637
1816.53	0.202042
1818.03	0.212541
1819.52	0.101151
1821.02	-0.161841
1822.52	0.029047
1824.02	-0.0710897
1825.52	0.280191
1827.02	0.19326
1828.52	0.192236
1830.02	-0.0654721
1831.51	0.0324278
1833.01	0.0406084
1834.51	-0.119916
1836.01	0.118044
1837.5	-0.0604324
1839	-0.167823
1840.49	-0.222085
1841.99	0.172534
1843.49	-0.0593324
1844.98	0.0205746
1846.48	0.105803
1847.97	-0.221836
1849.47	0.108327
1850.96	0.116511
1852.45	-0.144402
1853.95	0.0830755
1855.44	0.0664678
1856.93	0.0426149
1858.42	0.0732398
1859.92	0.338911
1861.41	0.0165329
1862.9	0.0620441
1864.39	0.149531
1865.88	0.0902791
1867.38	0.285698
1868.87	0.358976
1870.36	0.417184
1871.85	0.0560312
1873.34	0.182199
1874.83	0.501902
1876.32	0.130168
1877.81	-0.108006
1879.29	-0.182149
1880.78	-0.223532
1882.27	0.182021
1882.53	0.271394
1884.03	0.255012
1885.52	-0.0582099
1887.01	-0.215051
1888.51	-0.215429
1890	0.149696
1891.5	-0.197796
1892.99	0.0298696
1894.48	0.276227
1895.97	0.0717173
1897.47	0.0242972
1898.96	0.150715
1900.45	-0.0541544
1901.94	0.22684
1903.43	0.141155
1904.92	0.0370421
1906.41	0.453655
1907.9	0.279397
1909.39	-0.15458
1910.88	0.314735
1912.37	-0.117565
1913.86	-0.202393
1915.35	-0.113725
1916.84	0.113354
1918.33	0.0452657
1919.81	0.167469
1921.3	0.410764
1922.79	0.169389
1924.28	-0.17508
1925.76	0.294996
1927.25	0.367707
1928.73	0.0600138
1930.22	0.271708
1931.71	0.0325594
1933.19	0.225221
1934.68	0.174101
1936.16	-0.0858703
1937.65	0.293307
1939.13	0.464286
1940.62	-0.176282
1942.1	-0.10791
1943.58	0.426909
1945.07	-0.124391
1946.55	0.479941
1948.03	0.0324717
1949.51	0.204917
1951	-0.10565
1952.48	0.237314
1953.96	-0.0740261
1955.44	0.628817
1956.92	0.163316
1958.4	0.024982
1959.88	0.38481
1961.36	0.17888
1962.84	0.110389
1964.32	0.230268
1965.8	0.109905
1967.28	0.314331
1968.76	0.603522
1970.24	0.361983
1971.72	-0.0502305
1973.2	0.289093
1974.67	0.303938
1976.15	0.370025
1977.63	0.385053
1979.1	-0.0253916
1980.58	0.36414
1982.06	0.719008
1983.54	0.274788
1985.01	0.20437
1986.49	0.57482
1987.96	0.402377
1989.44	0.298177
1990.91	0.397709
1992.39	0.294885
1993.86	0.37889
1995.33	0.328265
1996.81	0.244214
1998.28	-0.0255899
1999.75	0.514808
2001.23	0.261172
2002.7	0.344715
2004.17	0.276341
2005.65	0.595831
2007.12	0.258745
2008.59	0.410913
2010.06	0.294306
2011.53	0.497966
2013	0.028358
2014.47	0.231699
2015.94	0.013762
2017.41	0.198917
2018.88	0.433726
2020.35	0.113411
2021.82	0.29711
2023.29	0.749428
2024.76	0.0610476
2026.23	0.0617194
2027.69	0.197617
2029.16	0.384936
2030.63	0.489437
2032.1	0.275892
2033.56	0.465454
2035.03	0.907038
2036.5	0.45825
2037.96	0.529679
2039.43	0.399145
2040.89	0.167635
2042.36	0.55843
2043.83	0.00810671
2045.29	0.652751
2046.75	0.372611
2048.22	0.311387
2049.68	0.317256
2051.15	0.676423
2052.61	0.52864
2054.07	0.32879
2055.54	0.296254
2057	0.549261
2058.46	0.464442
2059.92	0.295345
2061.39	0.143519
2062.85	0.463698
2064.31	0.296435
2065.77	0.36556
2067.23	0.216532
2068.69	1.01044
2070.15	0.559134
2071.61	0.377105
2073.07	0.0433717
2074.53	0.231379
2075.99	0.469673
2077.45	0.640332
2078.91	0.355988
2080.37	0.273381
2081.82	0.611271
2083.28	-0.044611
2084.74	0.376269
2086.2	0.426231
2087.65	0.442046
2089.11	0.306267
2090.57	0.187257
2092.02	-0.0492153
2093.48	0.41922
2094.94	0.0819793
2096.39	0.314599
2097.85	0.311935
2099.3	0.225121
2100.76	0.589705
2102.21	0.285495
2103.66	0.199404
2105.12	0.514894
2106.57	0.680995
2108.03	0.497544
2109.48	0.431154
2110.93	0.597761
2112.38	0.246682
2113.84	0.594114
2115.29	0.457287
2116.74	0.320003
2118.19	0.5486
2119.64	0.794443
2121.09	0.477435
2122.54	0.493819
2123.99	0.511274
2125.45	0.49604
2126.89	0.364542
2128.34	0.928535
2129.79	0.646024
2131.24	0.412442
2132.69	0.691635
2134.14	0.623074
2135.59	1.01813
2137.04	0.868574
2138.48	0.720518
2139.93	0.474741
2141.38	0.626827
2142.83	0.647583
2144.27	0.652289
2145.72	0.0281706
2147.17	0.843782
2148.61	0.715425
2150.06	0.453794
2151.5	0.986633
2152.95	0.690309
2154.39	0.608756
2155.84	0.97416
2157.28	0.975109
2158.73	0.694999
2160.17	0.863135
2161.61	0.933229
2163.06	0.756088
2164.5	0.596461
2165.94	0.819077
2167.38	0.80933
2168.83	1.04814
2170.27	1.20265
2171.71	1.07277
2173.15	1.10769
2174.59	0.792215
2176.03	1.12497
2177.47	1.02544
2178.91	0.90989
2180.36	0.76183
2181.8	0.980195
2183.23	0.766678
2184.67	0.885943
2186.11	1.15502
2187.55	0.92503
2188.99	0.778183
2190.43	0.831001
2191.87	0.883623
2193.3	0.919028
2194.74	0.687028
2196.18	0.53696
2197.62	0.718291
2199.05	0.632093
2200.49	0.445549
2201.93	0.973049
2203.36	0.637569
2204.8	0.452548
2206.23	0.583343
2207.67	0.499038
2209.1	0.762404
2210.54	0.760104
2211.97	0.790116
2213.41	0.819499
2214.84	0.551427
2216.27	0.23463
2217.71	0.875857
2219.14	0.181666
2220.57	0.576626
2222.01	0.49348
2223.44	0.558132
2224.87	0.391155
2226.3	0.716764
2227.73	0.695333
2229.16	0.738641
2230.6	0.60079
2232.03	0.364756
2233.46	0.424065
2234.89	0.36933
2236.32	0.331878
2237.75	0.426229
2239.18	0.24446
2240.61	0.374188
2242.03	0.45624
2243.46	0.278228
2244.89	0.54085
2246.32	0.346272
2247.75	0.917052
2249.17	0.523992
2250.6	0.439194
2252.03	0.695029
2253.46	0.705821
2254.88	0.294391
2256.31	0.728878
2257.73	0.726522
2259.16	0.40189
2260.59	-0.0179315
2262.01	0.570086
2263.44	0.412771
2264.86	0.174225
2266.29	0.553024
2267.71	0.134468
2269.14	0.414683
2270.56	0.271225
2271.98	0.6158
2273.4	0.488081
2274.83	0.751318
2276.25	0.395656
2277.67	0.496284
2279.09	0.238349
2280.52	0.159602
2281.94	0.243819
2283.36	0.425891
2284.78	0.232742
2286.2	0.34978
2287.62	0.58144
2289.04	0.682913
2290.46	0.408935
2291.88	0.314749
2293.3	0.187852
2294.72	0.649837
2296.14	0.277348
2297.56	0.313879
2298.98	0.203027
2300.4	0.469175
2301.82	0.276632
2303.23	0.707531
2304.65	0.13769
2306.07	0.421199
2307.49	0.441825
2308.9	0.149725
2310.32	0.432508
2311.73	0.435534
2313.15	0.175264
2314.57	0.2443
2315.98	0.0669127
2317.4	0.202933
2318.81	0.158086
2320.23	0.393401
2321.64	0.3146
2323.06	0.151834
2324.47	0.251408
2325.88	0.464774
2327.3	0.792125
2328.71	0.508741
2330.12	0.719946
2331.54	0.306008
2332.95	0.354037
2334.36	0.0242243
2335.77	0.171791
2337.18	0.0393653
2338.6	0.0871644
2340.01	-0.0137963
2341.42	0.147425
2342.83	0.308061
2344.24	0.353651
2345.65	0.284655
2347.06	0.134052
2348.47	0.0982285
2349.88	0.193029
2351.29	0.189044
2352.7	0.184335
2354.1	0.227891
2355.51	0.319738
2356.92	0.215743
2358.33	0.209527
2359.74	0.105924
2361.14	0.408348
2362.55	-0.10053
2363.96	-0.0577679
2365.36	0.0333977
2366.77	0.544675
2368.18	0.118948
2369.58	0.323864
2370.99	0.303766
2372.39	0.284676
2373.8	0.185832
2375.2	0.473659
2376.61	0.197827
2378.01	0.307393
2379.42	0.415654
2380.82	-0.023325
2382.22	-0.0615582
2383.63	0.0437994
2385.03	-0.235178
2386.43	-0.00196075
2387.84	0.231353
2389.24	0.257793
2390.64	0.157674
2392.04	-0.148415
2393.44	0.437613
2394.84	-0.041904
2396.25	0.242581
2397.65	0.193585
2399.05	-0.15686
2400.45	0.33515
2401.85	-0.0463758
2403.25	-0.0307288
2404.65	0.191059
2406.05	0.300985
2407.45	0.0451903
2408.84	-0.0682135
2410.24	-0.403658
2411.64	-0.0415182
2413.04	0.447551
2414.44	0.272307
2415.83	0.493988
2417.23	0.400047
2418.63	0.480952
2420.02	0.213742
2421.42	0.104742
2422.82	0.106345
2424.21	0.34541
2425.61	0.188416
2427	0.301191
2428.4	0.509782
2429.8	0.528931
2431.19	0.326489
2432.58	0.0922146
2433.98	0.238514
2435.37	0.320533
2436.77	0.210812
2438.16	0.0522866
2439.55	0.0834804
2440.95	0.129872
2442.34	0.509192
2443.73	0.475429
2445.12	0.378113
2446.51	-0.115602
2447.91	0.199228
2449.3	-0.151519
2450.69	0.0365305
2452.08	0.208985
2453.47	0.223671
2454.86	0.207346
2456.25	0.175723
2457.64	0.334153
2459.03	0.223558
2460.42	0.270703
2461.81	-0.0780377
2463.2	0.394733
2464.59	0.155753
2465.98	-0.193798
2467.36	0.198795
2468.75	0.417435
2470.14	0.272992
2471.53	0.3175
2472.92	0.455958
2474.3	0.609384
2475.69	-0.103076
2477.08	-0.437465
2478.46	0.312253
2479.85	-0.0375433
2481.23	-0.0103564
2482.62	-0.139936
2484	0.309564
2485.39	0.0538239
2486.77	0.0633574
2488.16	-0.146386
2489.54	-0.449641
2490.93	0.10379
2492.31	0.158777
2493.69	0.0280976
2495.08	0.00724792
2496.46	0.0338445
2497.84	-0.000933647
2499.23	0.150271
2500.61	-0.00832748
2501.99	-0.229062
2503.37	-0.110408
2504.75	0.130774
2506.13	-0.0912461
2507.52	-0.0820928
2508.9	0.219225
2510.28	0.36664
2511.66	0.253432
2513.04	-0.104232
2514.42	0.0447612
2515.8	-0.0201049
2517.18	0.129823
2518.55	0.127103
2519.93	0.00226927
2521.31	0.060647
2522.69	-0.186781
2524.07	-0.0531611
2525.45	0.0340295
2526.82	-0.244575
2528.2	0.147039
2529.58	-0.0237021
2530.95	0.232459
2532.33	0.170613
2533.71	-0.239627
2535.08	0.171094
2536.46	0.110809
2537.84	0.0956192
2539.21	-0.117699
2540.59	0.169538
2541.96	0.198308
2543.34	0.0755424
2544.71	-0.319569
2546.08	0.135693
2547.46	0.030612
2548.83	-0.0131769
2550.2	-0.178323
2551.58	0.0810838
2552.95	0.0363369
2554.32	0.157769
2555.7	0.0964422
2557.07	0.29259
2558.44	0.0942955
2559.81	-0.194645
2561.18	0.198962
2562.55	0.198913
2563.93	0.275083
2565.3	0.184887
2566.67	-0.0718169
2568.04	0.308053
2569.41	0.172671
2570.78	0.0524397
2572.15	0.0231795
2573.51	0.0394611
2574.88	0.177102
2576.25	-0.0642295
2577.62	0.300845
2578.99	0.135098
2580.36	0.120723
2581.73	0.0302386
2583.09	-0.0756569
2584.46	0.151821
2585.83	-0.196788
2587.19	0.212598
2588.56	0.258336
2589.93	0.122305
2591.29	-0.362321
2592.66	-0.0895805
2594.02	0.167351
2595.39	0.0145178
2596.75	-0.123797
2598.12	0.0400276
2599.48	0.203392
2600.85	0.140009
2602.21	0.0317702
2603.58	-0.136249
2604.94	-0.0622807
2606.3	0.20788
2607.67	-0.0350661
2609.03	0.0380993
2610.39	0.200678
2611.76	0.0760865
2613.12	0.0711551
2614.48	0.00558805
2615.84	0.120036
2617.2	-0.170306
2618.56	-0.249975
2619.92	0.164853
2621.28	0.0861511
2622.65	-0.216169
2624.01	0.183907
2625.37	0.165601
2626.72	-0.0616245
2628.08	0.307284
2629.44	-0.262625
2630.8	0.00137138
2632.16	-0.077034
2633.52	-0.125628
2634.88	-0.0554175
2636.24	-0.148462
2637.59	-0.0487204
2638.95	0.124941
2640.31	-0.174974
2641.67	-0.296829
2643.02	0.098752
2644.38	0.0953231
2645.74	0.416406
2647.09	0.206033
2648.45	-0.284374
2649.8	0.285046
2651.16	0.103114
2652.51	0.215046
2653.87	-0.0398412
2655.22	0.190011
2656.58	0.0541625
2657.93	-0.0513539
2659.29	0.32666
2660.64	0.119754
2661.99	-0.0578122
2663.35	0.217175
2664.7	-0.151005
2666.05	-0.00871038
2667.41	-0.304171
2668.76	0.289038
2670.11	-0.00602341
2671.46	0.00508451
2672.81	0.191014
2674.16	-0.174625
2675.51	0.258852
2676.87	0.344172
2678.22	-0.0631671
2679.57	0.516342
2680.92	-0.106863
2682.27	0.0247798
2683.62	0.0993295
2684.97	0.348694
2686.31	0.0181904
2687.66	0.296978
2689.01	0.168539
2690.36	-0.236988
2691.71	0.285209
2693.06	0.370693
2694.4	0.339362
2695.75	-0.0398808
2697.1	0.262547
2698.45	0.0733709
2699.79	-0.0565591
2701.14	0.147844
2702.49	0.411387
2703.83	-0.121053
2705.18	-0.0446744
2706.52	0.0898466
2707.87	0.195286
2709.21	-0.0769038
2710.56	-0.0736413
2711.9	0.365243
2713.25	0.0050993
2714.59	0.0516958
2715.94	0.21461
2717.28	0.508427
2718.62	0.045723
2719.97	0.222795
2721.31	-0.0369897
2722.65	0.386897
2723.99	0.0827217
2725.34	0.185782
2726.68	0.463231
2728.02	0.536659
2729.36	0.231542
2730.7	-0.000844955
2732.04	0.145078
2733.39	0.232857
2734.73	0.146218
2736.07	-0.012969
2737.41	0.0897641
2738.75	0.294289
2740.08	0.280483
2741.43	0.382657
2742.76	0.222651
2744.1	0.323805
2745.44	0.221051
2746.78	0.161634
2748.12	0.247293
2749.46	0.158821
2750.79	0.128592
2752.13	-0.0173907
2753.47	0.0977821
2754.81	0.111602
2756.14	-0.00482464
2757.48	0.211978
2758.81	0.08145
2760.15	0.168374
2761.49	0.183287
2762.82	0.140687
2764.16	0.156216
2765.49	0.157278
2766.83	-0.174725
2768.16	0.0134444
2769.5	0.128295
2770.83	-0.307155
2772.16	0.137908
2773.5	0.0765257
2774.83	-0.0572214
2776.17	0.0108991
2777.5	0.0503983
2778.83	0.147773
2780.16	-0.085114
2781.5	0.213901
2782.83	-0.176249
2784.16	0.050776
2785.49	-0.0808034
2786.82	-0.0688386
2788.15	0.000742435
2789.49	-0.0722475
2790.82	0.155826
2792.15	-0.101799
2793.48	-0.173118
2794.81	0.255849
2796.14	-0.187208
2797.46	0.126652
2798.79	0.182883
2800.12	0.181671
2801.45	0.151743
2802.78	0.264291
2804.11	0.205533
2805.44	0.260459
2806.76	-0.197516
2808.09	-0.257056
2809.42	0.0953546
2810.75	0.248443
2812.07	-0.0523372
2813.4	0.0452042
2814.73	0.143717
2816.05	0.158196
2817.38	-0.0674448
2818.7	0.2743
2820.03	-0.106793
2821.36	0.0362225
2822.68	0.0370312
2824.01	-0.10428
2825.33	0.0375257
2826.65	0.29259
2827.98	0.19398
2829.3	0.124135
2830.63	0.351924
2831.95	0.494927
2833.27	0.411404
2834.6	0.313504
2835.92	0.625676
2837.24	0.626059
2838.56	0.626114
2839.88	0.96542
2841.21	0.979462
2842.53	1.17759
2843.85	1.00872
2845.17	1.434
2846.49	1.20969
2847.81	1.49445
2849.13	1.52485
2850.45	1.59742
2851.77	1.8392
2853.09	1.84027
2854.41	1.9682
2855.73	1.64384
2857.05	2.05413
2858.37	1.84288
2859.69	2.40841
2861	1.98522
2862.32	2.43718
2863.64	2.39465
2864.96	2.8881
2866.28	2.92987
2867.59	2.98595
2868.91	3.2257
2870.23	2.98641
2871.54	2.60638
2872.86	3.43827
2874.17	3.60691
2875.49	3.28152
2876.81	3.88461
2878.12	3.48729
2879.44	3.69488
2880.75	3.69169
2882.07	3.35205
2883.38	3.67369
2884.69	3.39226
2886.01	3.36416
2887.32	3.61683
2888.63	3.71464
2889.95	3.85377
2891.26	3.52932
2892.57	3.87733
2893.89	3.6085
2895.2	3.94233
2896.51	3.94068
2897.82	4.20586
2899.13	3.84226
2900.44	3.92713
2901.76	4.47401
2903.07	4.02788
2904.38	4.14139
2905.69	4.61881
2907	4.21552
2908.31	4.48435
2909.62	5.03385
2910.93	4.7444
2912.24	5.02872
2913.55	5.29841
2914.85	5.41282
2916.16	5.44159
2917.47	5.66477
2918.78	5.83091
2920.09	5.80096
2921.4	6.17713
2922.7	6.10699
2924.01	6.47152
2925.32	6.48769
2926.62	6.7421
2927.93	6.64706
2929.24	7.01297
2930.54	6.56745
2931.85	6.75054
2933.15	6.87742
2934.46	6.97628
2935.76	7.22895
2937.07	6.62927
2938.37	6.22546
2939.68	6.38086
2940.98	6.17342
2942.29	6.03663
2943.59	5.32789
2944.89	5.79439
2946.2	5.64691
2947.5	5.03814
2948.8	5.32444
2950.11	4.81181
2951.41	4.52141
2952.71	4.62139
2954.01	4.53809
2955.32	4.45445
2956.62	4.45556
2957.92	4.43041
2959.22	4.30958
2960.52	4.41517
2961.82	3.89182
2963.12	4.11188
2964.42	4.00885
2965.72	4.15729
2967.02	4.16387
2968.32	3.95837
2969.62	3.56925
2970.92	3.88306
2972.22	3.87367
2973.51	3.76602
2974.81	3.7005
2976.11	3.6062
2977.41	2.97565
2978.71	3.5545
2980	2.99142
2981.3	3.1733
2982.6	2.96068
2983.9	2.83284
2985.19	2.48109
2986.49	2.58036
2987.78	2.4138
2989.08	2.34637
2990.38	2.27911
2991.67	2.19735
2992.97	1.79146
2994.26	2.18553
2995.56	1.58116
2996.85	1.98747
2998.14	1.62138
2999.44	1.84488
3000.73	1.61989
3002.03	1.54967
3003.32	1.46576
3004.61	1.3259
3005.91	0.891792
3007.2	0.695461
3008.49	1.24017
3009.78	1.23819
3011.07	1.0679
3012.37	0.743889
3013.66	1.08994
3014.95	0.710852
3016.24	0.235256
3017.53	0.763124
3018.82	0.53934
3020.11	0.89989
3021.4	0.842662
3022.69	0.618123
3023.98	0.823318
3025.27	0.362029
3026.56	0.732408
3027.85	0.714929
3029.14	0.324984
3030.43	0.46166
3031.71	0.599216
3033	0.626949
3034.29	0.365031
3035.58	0.489106
3036.87	0.570657
3038.15	0.60934
3039.44	0.453785
3040.73	0.462262
3042.01	0.593481
3043.3	0.340444
3044.59	0.526659
3045.87	0.604212
3047.16	0.614897
3048.44	0.559036
3049.73	0.463827
3051.01	0.751871
3052.3	0.0852561
3053.58	0.769454
3054.87	0.770803
3056.15	0.8258
3057.43	0.675331
3058.72	0.864907
3060	0.890569
3061.29	0.725897
3062.57	0.548464
3063.85	0.752848
3065.13	0.808719
3066.42	0.457757
3067.7	0.5969
3068.98	0.409925
3070.26	0.58983
3071.54	0.660205
3072.82	0.579947
3074.11	0.716166
3075.39	0.647628
3076.67	0.26646
3077.95	0.388097
3079.23	0.374661
3080.51	0.484349
3081.79	0.228865
3083.07	0.109849
3084.35	0.181175
3085.63	0.306767
3086.9	0.0654917
3088.18	0.0407529
3089.46	0.44972
3090.74	-0.200298
3092.02	0.302889
3093.29	0.0870018
3094.57	-0.196488
3095.85	-0.208611
3097.13	0.1588
3098.4	0.227742
3099.68	0.28289
3100.95	-0.0956445
3102.23	0.135367
3103.51	-0.0804291
3104.78	-0.0792961
3106.06	-0.104817
3107.33	0.0596666
3108.61	-0.0458741
3109.88	-0.0424967
3111.16	-0.0249801
3112.43	0.0607209
3113.71	-0.0972285
3114.98	-0.0927501
3116.25	0.182498
3117.53	-0.0718398
3118.8	0.134028
3120.07	0.0405722
3121.35	0.24461
3122.62	0.0684681
3123.89	-0.0807085
3125.16	0.0816569
3126.44	0.298214
3127.71	-0.0939164
3128.98	-0.0121698
3130.25	-0.0790792
3131.52	-0.0513849
3132.79	0.00307417
3134.06	-0.0644789
3135.33	0.164499
3136.6	-0.0525641
3137.87	-0.000237942
3139.14	0.0919914
3140.41	-0.125777
3141.68	0.0198021
3142.95	-0.0497956
3144.22	-0.226486
3145.49	0.0937304
3146.76	0.212736
3148.02	0.251541
3149.29	0.196864
