200.43	-0.227184
202.244	-0.204687
204.059	-0.181378
205.873	0.57221
207.688	0.474393
209.501	0.643357
211.314	0.883899
213.127	1.07428
214.941	0.947946
216.753	0.651426
218.564	0.694322
220.375	0.326124
222.186	0.587971
223.999	0.511765
225.809	0.0734959
227.618	0.577648
229.428	0.259948
231.236	-0.227018
233.045	0.540508
234.855	0.270673
236.663	0.50818
238.471	0.482178
240.278	0.265426
242.085	0.677352
243.891	0.342892
245.698	0.466542
247.503	0.637135
249.309	0.708738
251.116	0.342866
252.921	0.384918
254.725	1.05247
256.529	0.947295
258.333	0.96336
260.136	0.282167
261.939	0.590482
263.742	0.779731
265.544	0.704874
267.346	0.389223
269.148	0.796251
270.949	0.840973
272.75	0.764019
274.55	0.61338
276.351	0.774613
278.15	1.0786
279.95	0.416973
281.749	0.380046
283.548	0.822433
285.346	0.806147
287.144	0.741092
288.942	0.652099
290.739	0.7555
292.536	0.524734
294.333	0.702258
296.129	0.809134
297.925	0.582263
299.721	0.953257
301.514	0.917758
303.309	0.642724
305.104	0.414496
306.898	0.829597
308.692	0.62417
310.486	0.657641
312.279	1.02553
314.072	1.08512
315.862	0.955897
317.654	0.995001
319.446	0.773465
321.238	0.433614
323.029	0.7141
324.819	0.780519
326.608	0.632179
328.398	0.555108
330.188	0.644662
331.977	0.278791
333.766	0.987779
335.553	0.713989
337.341	0.294513
339.129	0.878072
340.917	0.192333
342.704	0.749395
344.489	0.827995
346.275	0.596449
348.062	0.485033
349.845	0.493451
351.631	0.191602
353.416	0.939317
355.201	0.898431
356.984	0.0933485
358.768	0.83687
360.552	1.03066
362.333	0.509387
364.116	0.725314
365.899	0.298762
367.68	0.299491
369.462	0.963363
371.243	0.464411
373.023	0.48641
374.804	0.460728
376.585	0.104648
378.363	0.480751
380.143	0.385713
381.923	0.550762
383.7	0.105136
385.479	0.507442
387.256	1.14541
389.034	0.398008
390.812	0.497348
392.588	0.104202
394.365	0.0403957
396.14	0.610978
397.916	0.33621
399.691	0.507509
401.467	0.98379
403.24	0.754852
405.015	0.689666
406.788	0.600326
408.563	0.510469
410.335	1.10106
412.109	0.189461
413.88	0.381371
415.654	0.409612
417.424	1.02516
419.197	0.773149
420.967	0.216188
422.739	0.222244
424.508	0.720705
426.279	0.373246
428.048	0.377192
429.819	0.00514698
431.587	0.313778
433.356	0.599172
435.124	0.57976
436.891	0.489931
438.66	0.399515
440.426	-0.0206404
442.194	-0.0669394
443.96	-0.0446701
445.725	0.069705
447.492	0.463708
449.257	0.131688
451.021	0.290958
452.787	0.426894
454.551	0.236269
456.314	0.232394
458.079	0.857186
459.842	0.224463
461.604	-0.0579462
463.368	0.219072
465.13	0.265578
466.891	0.756047
468.654	0.249742
470.415	0.30281
472.175	0.240168
473.935	0.712341
475.696	0.0886936
477.456	0.650908
479.215	0.652452
480.973	0.58321
482.733	0.0483017
484.491	0.0733795
486.249	0.356367
488.006	0.734688
489.765	0.532266
491.522	0.657303
493.278	0.993473
495.034	0.605506
496.789	0.333802
498.544	0.576818
500.301	0.397783
502.056	0.288292
503.81	0.765079
505.564	0.677431
507.317	0.611972
509.071	0.992054
510.825	0.264991
512.578	0.712916
514.33	0.971252
516.082	0.404889
517.833	0.237564
519.585	0.398603
521.335	0.441365
523.086	0.741985
524.836	0.478794
526.586	0.685051
528.335	0.562881
530.085	0.721974
531.835	0.505803
533.584	0.336013
535.332	0.49291
537.08	0.157566
538.827	0.708818
540.574	0.0918179
542.321	0.430554
544.068	0.16327
545.814	0.826056
547.56	0.535883
549.305	0.408895
551.05	0.39819
552.795	0.410817
554.54	0.146328
556.282	0.298138
558.025	0.565286
559.769	0.325533
561.512	0.478046
563.255	0.262825
564.997	0.439203
566.739	0.317318
568.481	0.17334
570.223	0.420548
571.964	1.10471
573.705	0.712062
575.443	0.229319
577.183	0.115041
578.923	0.162545
580.663	0.463434
582.402	0.213257
584.141	0.261272
585.879	0.00948715
587.615	0.653658
589.353	0.376708
591.09	0.374991
592.828	0.119729
594.564	-0.13565
596.299	0.483291
598.035	0.250962
599.771	0.0183601
601.506	0.130165
603.242	-0.288081
604.974	-0.270445
606.709	-0.391761
608.443	0.0834694
610.177	0.0760584
611.908	0.367267
613.642	0.314975
615.374	0.469616
617.105	0.051569
618.837	0.251776
620.569	0.542448
622.3	0.534307
624.03	1.14263
625.761	0.356608
627.491	0.188947
629.219	-0.20506
630.949	0.0191689
632.677	0.313604
634.406	0.358027
636.135	0.425061
637.861	0.376503
639.59	0.713574
641.318	0.409046
643.043	0.376259
644.77	0.387931
646.495	0.581823
648.222	0.367893
649.948	0.543226
651.672	0.199321
653.398	0.267811
655.121	0.134568
656.846	0.253563
658.569	0.419254
660.293	0.607796
662.015	0.635456
663.738	0.295475
665.46	0.63891
667.183	0.706431
668.903	0.247239
670.626	0.772109
672.346	0.154802
674.067	0.935859
675.787	0.161508
677.508	0.740496
679.226	0.425098
680.947	0.751957
682.665	0.479604
684.385	0.711456
686.102	1.19502
687.821	0.686969
689.538	0.523311
691.254	0.474166
692.972	0.677855
694.688	0.305063
696.406	0.967781
698.121	1.35284
699.835	1.00008
701.552	0.876578
703.266	0.59148
704.98	0.788451
706.695	0.204356
708.409	1.0426
710.121	0.756406
711.836	0.424574
713.548	0.733514
715.26	0.744645
716.973	1.16667
718.685	1.04057
720.396	1.21115
722.108	0.652874
723.818	0.960218
725.528	0.925948
727.238	1.52745
728.949	0.902081
730.658	0.934947
732.367	1.39772
734.075	0.818624
735.785	0.579763
737.493	1.31266
739.2	1.14241
740.907	1.06351
742.614	1.54897
744.322	1.60735
746.028	1.39699
747.734	1.59303
749.439	1.04799
751.144	1.58384
752.849	1.10874
754.555	1.1747
756.26	1.24203
757.963	1.37838
759.667	0.952986
761.37	1.42986
763.073	1.86283
764.775	1.48334
766.477	1.1249
768.179	1.55565
769.883	0.989797
771.584	2.00491
773.285	2.00112
774.986	1.29592
776.686	1.58611
778.386	1.56092
780.085	2.28346
781.785	1.3786
783.484	1.96698
785.182	1.96612
786.881	1.94043
788.579	1.61758
790.276	1.35984
791.974	1.52943
793.671	1.44884
795.367	1.52604
797.064	0.995355
798.76	1.86326
800.456	1.83139
802.151	1.98088
803.846	1.54618
805.541	2.2582
807.234	2.02511
808.928	1.58904
810.622	2.45402
812.315	1.54534
814.008	2.00431
815.701	1.52202
817.394	2.3602
819.086	1.96784
820.778	2.0229
822.468	2.07823
824.159	2.00042
825.85	1.8349
827.541	2.16153
829.231	1.97836
830.921	1.84259
832.609	1.68712
834.298	1.89013
835.987	1.55902
837.676	1.36127
839.364	1.7875
841.051	1.89992
842.738	1.81007
844.426	1.11634
846.113	2.16629
847.798	2.10054
849.484	2.12654
851.171	1.77428
852.857	1.37836
854.54	1.83512
856.226	1.57394
857.911	0.973979
859.593	1.18159
861.278	1.27534
862.961	1.57048
864.645	1.70694
866.327	1.57209
868.01	1.00814
869.692	1.39078
871.373	1.16422
873.055	1.54653
874.735	1.29709
876.416	1.20554
878.097	1.06884
879.776	1.0223
881.457	0.907705
883.135	1.46974
884.815	1.06008
886.495	1.61979
888.172	1.41064
889.851	1.31296
891.528	1.39434
893.206	1.24917
894.882	1.14818
896.56	1.18127
898.237	1.2583
899.912	1.42405
901.589	0.692469
903.263	1.17054
904.94	1.42372
906.614	1.3863
908.289	0.970519
909.962	0.845968
911.635	1.32311
913.31	1.42208
914.982	1.38798
916.656	0.777213
918.328	0.943224
920.001	1.02043
921.672	0.898879
923.345	1.02164
925.015	0.748021
926.685	1.05035
928.357	1.00076
930.026	0.974372
931.698	0.860341
933.366	0.702466
935.035	1.16238
936.705	0.960902
938.373	0.892519
940.041	1.08985
941.71	1.37655
943.377	0.671085
945.044	0.936294
946.712	0.450098
948.378	1.24259
950.044	1.17247
951.709	1.23363
953.376	1.0742
955.041	0.828002
956.706	0.694456
958.372	0.872456
960.036	0.368823
961.699	0.926085
963.362	0.865151
965.027	0.493053
966.69	0.40599
968.352	0.670555
970.014	0.446562
971.676	0.133396
973.339	0.860076
975	1.07923
976.661	0.658635
978.322	0.725865
979.982	0.572436
981.642	0.418599
983.303	0.462817
984.962	1.32447
986.621	1.25443
988.28	0.740289
989.938	0.645627
991.596	0.439979
993.254	0.764497
994.911	0.867957
996.57	1.32437
998.227	0.721889
999.884	1.39798
1001.54	1.58838
1003.2	0.985869
1004.85	1.10959
1006.51	0.507832
1008.16	0.280334
1009.82	0.777576
1011.47	0.506977
1013.12	1.26717
1014.78	0.515466
1016.43	0.0933161
1018.08	0.32844
1019.74	0.367166
1021.39	0.86586
1023.04	0.38163
1024.69	0.357353
1026.34	0.0713568
1028	0.703127
1029.65	0.940946
1031.3	0.653412
1032.95	0.757633
1034.6	0.663922
1036.25	0.808927
1037.9	0.36477
1039.54	0.225963
1041.19	0.131401
1042.84	0.298874
1044.49	0.358984
1046.14	0.551005
1047.78	0.397099
1049.43	0.744115
1051.08	0.223476
1052.72	0.876487
1054.37	0.465355
1056.02	0.18444
1057.66	-0.22727
1059.31	0.0562391
1060.95	0.752422
1062.6	0.317266
1064.24	0.511893
1065.88	0.509911
1067.53	0.0723076
1069.17	0.438007
1070.81	0.759406
1072.45	-0.178592
1074.1	0.750582
1075.74	0.204994
1077.38	0.289703
1079.02	1.11273
1080.66	0.87383
1082.3	1.13368
1083.94	0.221869
1085.58	0.392852
1087.22	0.388636
1088.86	0.252722
1090.5	0.829488
1092.14	0.150422
1093.78	0.400803
1095.42	0.6724
1097.05	0.168189
1098.69	0.182878
1100.33	1.38301
1101.96	0.259758
1103.6	0.257432
1105.24	0.621893
1106.87	0.341552
1108.51	0.448116
1110.14	0.360207
1111.78	0.700846
1113.41	0.373814
1115.05	0.389541
1116.68	-0.131603
1118.31	0.655736
1119.95	0.43569
1121.58	0.752061
1123.21	0.384177
1124.85	0.0174389
1126.48	1.08472
1128.11	0.398659
1129.74	0.141085
1131.37	0.953007
1133	0.696188
1134.63	-0.00959682
1136.26	0.502494
1137.89	0.137411
1139.52	-0.399341
1141.15	-0.210579
1142.78	0.340321
1144.41	-0.0476732
1146.04	0.247442
1147.66	0.521825
1149.29	-0.289762
1150.92	0.177464
1152.55	0.814838
1154.17	0.301953
1155.8	0.491338
1157.43	0.25496
1159.05	0.274255
1160.68	0.506902
1162.3	0.591605
1163.93	0.124388
1165.55	0.167898
1167.17	0.508866
1168.8	0.508716
1170.42	-0.279314
1172.05	0.270038
1173.67	0.244022
1175.29	0.0472298
1176.91	0.210655
1178.54	0.352783
1180.16	0.537629
1181.78	0.257624
1183.4	0.464789
1185.02	0.101256
1186.64	0.307517
1188.26	0.195592
1189.88	0.208645
1191.5	0.388443
1193.12	-0.127368
1194.74	0.659217
1196.36	0.374349
1197.97	0.488863
1199.59	0.144503
1201.21	0.450566
1202.83	0.716699
1204.44	0.671814
1206.06	0.461974
1207.68	0.774938
1209.29	0.691759
1210.91	0.461907
1212.52	0.647676
1214.14	0.352043
1215.75	0.554564
1217.37	0.630316
1218.98	0.372491
1220.59	0.779358
1222.21	0.812698
1223.82	0.536286
1225.43	0.986317
1227.05	1.04398
1228.66	0.503053
1230.27	1.34896
1231.88	0.851887
1233.49	0.728114
1235.1	1.08082
1236.72	1.00059
1238.33	1.00397
1239.94	0.511686
1241.55	0.660522
1243.16	1.0781
1244.76	0.812299
1246.37	0.524854
1247.98	0.981441
1249.59	1.02347
1251.2	1.39618
1252.8	0.817487
1254.41	1.25302
1256.02	0.717364
1257.62	0.968812
1259.23	1.05587
1260.84	1.18518
1262.44	1.06655
1264.05	1.44502
1265.66	1.22244
1267.26	0.833215
1268.86	1.23081
1270.47	1.2336
1272.07	1.4635
1273.67	0.717993
1275.28	0.759493
1276.88	1.21459
1278.48	1.21291
1280.09	1.0036
1281.69	1.51856
1283.29	1.1229
1284.89	1.41048
1286.49	0.933776
1288.09	1.11964
1289.69	1.32693
1291.29	0.666787
1292.89	1.0811
1294.49	1.16412
1296.09	1.36986
1297.69	1.55331
1299.29	1.42553
1300.89	1.39959
1302.49	1.20772
1304.08	1.17995
1305.68	1.66553
1307.28	0.91737
1308.88	1.1963
1310.47	1.86399
1312.07	1.36372
1313.66	1.11057
1315.26	1.90089
1316.85	1.24118
1318.45	2.07236
1320.04	1.33243
1321.64	1.77427
1323.23	1.56266
1324.83	1.3092
1326.42	1.03476
1328.01	1.14568
1329.61	1.25679
1331.2	1.7331
1332.79	1.05883
1334.38	1.82124
1335.97	1.63583
1337.56	1.39067
1339.16	1.9313
1340.75	1.54309
1342.34	1.8377
1343.93	1.08456
1345.52	1.63707
1347.11	1.28601
1348.7	1.37793
1350.29	1.07169
1351.87	0.828208
1353.46	0.846715
1355.05	0.706486
1356.64	1.10619
1358.22	0.906015
1359.81	1.24429
1361.4	0.982505
1362.98	1.55803
1364.57	0.876586
1366.16	1.09274
1367.74	0.791603
1369.33	1.02927
1370.91	1.08896
1372.5	0.811621
1374.08	0.714407
1375.67	1.33413
1377.25	1.07845
1378.83	0.464133
1380.41	0.823973
1382	0.62555
1383.58	0.704497
1385.16	0.484344
1386.74	0.422926
1388.33	1.07656
1389.91	0.717892
1391.49	1.09447
1393.07	0.400316
1394.65	1.09518
1396.23	0.877438
1397.81	0.758303
1399.39	0.955407
1400.97	0.596921
1402.55	0.931079
1404.13	1.02743
1405.7	1.20324
1407.28	0.450724
1408.86	0.786225
1410.44	0.805941
1412.01	0.766381
1413.59	0.469718
1415.17	0.843362
1416.74	0.841192
1418.32	0.602147
1419.89	1.52588
1421.47	0.539744
1423.04	0.736761
1424.62	0.994199
1426.19	0.97721
1427.77	0.547392
1429.34	0.983385
1430.91	1.39887
1432.49	1.20315
1434.06	0.829573
1435.63	1.55714
1437.2	1.3997
1438.78	1.55752
1440.35	1.67693
1441.92	2.03307
1443.49	1.60377
1445.06	1.68583
1446.63	1.76807
1448.2	1.41802
1449.77	1.87419
1451.34	2.48824
1452.91	1.94273
1454.48	1.84979
1456.05	1.95355
1457.62	1.60411
1459.18	1.31246
1460.75	1.86544
1462.32	2.02293
1463.89	0.703819
1465.45	1.44874
1467.02	1.30854
1468.59	1.54184
1470.15	0.657155
1471.72	0.81388
1473.28	1.12836
1474.85	1.05124
1476.41	0.935325
1477.98	0.701913
1479.54	0.448906
1481.1	0.88186
1482.67	1.41261
1484.23	0.258014
1485.79	0.474827
1487.36	0.612554
1488.92	0.416235
1490.48	0.668553
1492.04	0.410272
1493.61	0.502134
1495.17	0.670268
1496.73	0.252464
1498.29	0.283086
1499.85	0.955437
1501.41	-0.0617666
1502.97	0.533847
1504.53	0.295954
1506.09	0.0587406
1507.65	0.24692
1509.2	0.588401
1510.76	0.349211
1512.32	0.553088
1513.88	0.621363
1515.43	0.3244
1516.99	0.259065
1518.55	0.482195
1520.1	0.034935
1521.66	0.430758
1523.22	0.213799
1524.77	0.397598
1526.33	0.751669
1527.88	1.02781
1529.44	0.351933
1530.99	0.399465
1532.54	0.295609
1534.1	0.704076
1535.65	0.393727
1537.21	0.311633
1538.76	0.305824
1540.31	1.01691
1541.86	0.483382
1543.42	0.15783
1544.97	0.660006
1546.52	0.804124
1548.07	0.853985
1549.62	0.678782
1551.17	0.635167
1552.72	0.910106
1554.27	0.718134
1555.82	0.938575
1557.37	1.04834
1558.92	0.823943
1560.47	0.377524
1562.02	0.566843
1563.56	0.962377
1565.11	1.04133
1566.66	0.597888
1568.21	0.93802
1569.75	0.923234
1571.3	0.740101
1572.85	1.17272
1574.39	1.00787
1575.94	1.16038
1577.49	1.03307
1579.03	0.794093
1580.57	1.48922
1582.12	1.32623
1583.66	1.38812
1585.21	0.703222
1586.75	1.1026
1588.3	0.941319
1589.84	1.43464
1591.38	0.935856
1592.92	0.923147
1594.47	1.11621
1596.01	1.21573
1597.55	1.16575
1599.09	1.56634
1600.63	1.55525
1602.17	1.41321
1603.71	1.44003
1605.25	0.451781
1606.79	1.35972
1608.33	1.19495
1609.87	1.31
1611.41	1.14106
1612.95	0.876559
1614.49	1.02409
1616.03	1.18979
1617.57	0.980802
1619.1	1.07283
1620.64	0.716637
1622.18	0.380573
1623.72	1.46815
1625.25	1.11413
1626.79	1.07772
1628.32	0.684712
1629.86	0.889224
1631.39	0.943078
1632.93	1.18328
1634.46	1.49812
1636	1.55217
1637.53	1.36458
1639.07	0.767574
1640.6	1.41971
1642.13	1.60506
1643.67	1.37958
1645.2	1.24629
1646.73	1.44705
1648.26	1.07121
1649.8	1.08616
1651.33	1.0834
1652.86	1.52689
1654.39	1.54461
1655.92	1.2293
1657.45	1.1365
1658.98	1.28387
1660.51	1.24483
1662.04	1.55601
1663.57	1.40353
1665.1	1.43547
1666.63	1.35693
1668.16	1.26104
1669.68	1.31407
1671.21	1.22102
1672.74	1.20273
1674.27	1.25853
1675.79	0.90909
1677.32	0.743216
1678.85	0.392582
1680.37	0.740077
1681.9	0.957884
1683.42	1.35872
1684.95	1.04344
1686.47	1.02229
1688	1.03822
1689.52	0.395021
1691.05	0.887893
1692.57	0.501924
1694.09	0.317491
1695.62	0.40733
1697.14	0.460315
1698.66	0.969479
1700.18	0.291393
1701.71	0.0332088
1703.23	0.157629
1704.75	0.372438
1706.27	0.277197
1707.79	0.290937
1709.31	0.359074
1710.83	0.281972
1712.35	0.350215
1713.87	0.291661
1715.39	0.106537
1716.91	-0.0240688
1718.43	-0.0642052
1719.95	-0.140455
1721.47	0.018117
1722.99	-0.0574846
1724.5	0.444388
1726.02	0.298535
1727.54	0.225965
1729.06	0.514194
1730.57	-0.488379
1732.09	0.389014
1733.61	0.423145
1735.12	-0.222905
1736.64	0.205197
1738.15	0.182611
1739.67	0.0815535
1741.18	0.286029
1742.7	0.426301
1744.21	0.401454
1745.72	0.296566
1747.24	0.0505104
1748.75	-0.303667
1750.26	-0.517126
1751.77	0.0823326
1753.29	-0.223549
1754.8	-0.112776
1756.31	-0.0795674
1757.82	0.126433
1759.33	-0.42446
1760.84	0.135461
1762.36	-0.144407
1763.87	0.428223
1765.38	-0.00103617
1766.89	-0.107687
1768.4	0.122399
1769.91	0.138793
1771.41	-0.204058
1772.92	-0.165133
1774.43	0.101836
1775.94	0.207839
1777.45	0.0856409
1778.95	0.0583305
1780.46	-0.302949
1781.97	0.199458
1783.48	0.108417
1784.98	-0.0267882
1786.49	-0.338823
1787.99	-0.231575
1789.5	0.380971
1791.01	0.152534
1792.51	0.298002
1794.01	-0.0746226
1795.52	-0.176855
1797.02	0.0098424
1798.53	-0.0735102
1800.03	0.17664
1801.53	0.0160961
1803.04	0.271102
1804.54	-0.175828
1806.04	0.0164571
1807.54	0.0441122
1809.05	0.211985
1810.55	0.00135374
1812.05	-0.23783
1813.55	0.0306821
1815.05	0.0223455
1816.55	0.0740013
1818.05	-0.16637
1819.55	0.359755
1821.05	0.116964
1822.55	0.37208
1824.05	-0.145714
1825.55	0.103136
1827.05	-0.198647
1828.55	0.0614448
1830.04	0.0806098
1831.54	0.234471
1833.04	0.120742
1834.54	-0.0867114
1836.03	0.264339
1837.53	0.0690827
1839.03	0.0314755
1840.52	0.0927801
1842.02	0.369739
1843.51	0.279155
1845.01	0.229933
1846.5	0.154141
1848	0.292635
1849.49	0.00821638
1850.99	0.231562
1852.48	0.327757
1853.97	0.372944
1855.47	0.00865269
1856.96	0.0577407
1858.45	0.129901
1859.94	0.355789
1861.44	0.266321
1862.93	-0.0573473
1864.42	0.438396
1865.91	0.580474
1867.4	0.253735
1868.89	0.346495
1870.38	0.346621
1871.87	0.429162
1873.36	0.232737
1874.85	0.380855
1876.34	0.34037
1877.83	-0.0747161
1879.32	0.186553
1880.81	0.0508461
1882.3	0.342626
1882.57	0.422599
1884.07	0.0908012
1885.56	0.316175
1887.06	0.157413
1888.55	0.172468
1890.04	0.379071
1891.54	0.0472622
1893.03	0.169103
1894.52	-0.0204616
1896.02	0.591104
1897.51	0.125319
1899	0.598565
1900.49	0.618681
1901.98	0.0632567
1903.47	0.202145
1904.96	0.33969
1906.45	0.19844
1907.94	0.560911
1909.43	0.17724
1910.92	0.454027
1912.41	0.211045
1913.9	-0.0660362
1915.39	-0.100191
1916.88	0.714877
1918.37	0.333144
1919.85	0.540343
1921.34	-0.136014
1922.83	0.417808
1924.32	-0.0665865
1925.8	-0.186368
1927.29	0.525719
1928.78	0.199624
1930.26	0.35826
1931.75	0.394968
1933.23	0.170644
1934.72	0.221839
1936.2	0.28884
1937.69	0.164548
1939.17	0.178262
1940.66	0.382163
1942.14	0.552068
1943.63	-0.122485
1945.11	0.118122
1946.59	0.427832
1948.07	0.34076
1949.56	0.184178
1951.04	0.164614
1952.52	0.16148
1954	-0.0828648
1955.48	0.171376
1956.96	0.614514
1958.45	0.594362
1959.93	0.214659
1961.41	0.315876
1962.89	0.382887
1964.37	0.226945
1965.85	-0.10055
1967.32	0.461684
1968.8	0.424023
1970.28	0.180781
1971.76	-0.0794287
1973.24	0.47993
1974.72	0.441635
1976.19	0.369466
1977.67	0.348638
1979.15	0.395999
1980.63	0.00101995
1982.1	0.0143709
1983.58	0.299211
1985.05	0.277818
1986.53	0.459753
1988	-0.12119
1989.48	0.162633
1990.95	0.125118
1992.43	0.274499
1993.9	0.0188746
1995.38	0.271112
1996.85	0.388398
1998.32	0.336675
1999.8	0.487174
2001.27	0.637002
2002.74	0.36458
2004.22	0.277748
2005.69	0.208155
2007.16	0.509818
2008.63	0.559552
2010.1	0.374338
2011.57	0.223303
2013.04	0.190149
2014.51	-0.179942
2015.98	0.0214911
2017.45	0.0538487
2018.92	0.102288
2020.39	0.0998101
2021.86	0.0636311
2023.33	0.615247
2024.8	-0.0744896
2026.27	-0.0582814
2027.74	0.428735
2029.2	0.346765
2030.67	0.114945
2032.14	0.253009
2033.61	0.0893898
2035.07	0.261488
2036.54	0.349366
2038.01	-0.184903
2039.47	0.28866
2040.94	-0.162189
2042.4	0.0764651
2043.87	0.34954
2045.33	0.186094
2046.8	0.208333
2048.26	0.230837
2049.72	0.253053
2051.19	0.190092
2052.65	0.193201
2054.12	0.498322
2055.58	0.4646
2057.04	0.362258
2058.5	0.0739498
2059.97	0.156308
2061.43	0.121097
2062.89	0.608407
2064.35	0.00246763
2065.81	0.205271
2067.27	0.105854
2068.73	0.41085
2070.19	0.345846
2071.65	0.0114989
2073.11	0.518816
2074.57	0.57134
2076.03	-0.218438
2077.49	0.490216
2078.95	0.457547
2080.41	0.222409
2081.87	-0.114179
2083.32	0.154768
2084.78	0.355634
2086.24	0.168839
2087.7	0.553333
2089.15	0.0127964
2090.61	0.1445
2092.07	0.359938
2093.52	0.239477
2094.98	0.253072
2096.43	0.0986214
2097.89	0.245267
2099.34	0.173615
2100.8	0.168698
2102.25	0.0470185
2103.71	0.493943
2105.16	0.273881
2106.61	0.422211
2108.07	0.204405
2109.52	0.220409
2110.97	0.619323
2112.43	0.500226
2113.88	0.163291
2115.33	0.474411
2116.78	0.252282
2118.23	0.745039
2119.68	0.408343
2121.13	0.140064
2122.59	0.0891881
2124.04	0.553563
2125.49	0.388287
2126.94	0.255947
2128.39	0.437732
2129.83	0.104554
2131.28	0.466193
2132.73	0.214339
2134.18	0.492124
2135.63	0.456146
2137.08	0.272699
2138.53	0.40487
2139.97	0.340293
2141.42	0.144802
2142.87	0.694287
2144.31	0.500283
2145.76	0.521367
2147.21	0.608428
2148.65	0.959998
2150.1	0.598612
2151.54	0.484765
2152.99	0.635171
2154.43	0.619185
2155.88	0.486845
2157.32	0.950943
2158.77	0.769607
2160.21	0.953873
2161.65	0.74204
2163.1	0.531616
2164.54	0.38858
2165.98	0.744095
2167.43	0.418807
2168.87	0.807061
2170.31	0.76173
2171.75	0.514924
2173.19	0.698964
2174.64	0.465985
2176.07	0.581845
2177.52	0.448435
2178.96	0.43207
2180.4	0.848775
2181.84	0.767455
2183.28	0.420529
2184.72	1.10494
2186.15	0.442142
2187.59	0.161805
2189.03	0.580373
2190.47	0.782681
2191.91	0.701794
2193.35	0.786729
2194.78	0.637411
2196.22	0.619733
2197.66	0.201072
2199.09	0.529685
2200.53	0.408385
2201.97	0.884819
2203.4	0.979582
2204.84	0.561193
2206.27	0.293265
2207.71	0.373877
2209.14	0.735746
2210.58	0.351799
2212.01	0.232083
2213.45	0.095387
2214.88	0.470806
2216.31	0.565634
2217.75	0.694318
2219.18	0.593087
2220.61	0.327796
2222.05	0.276995
2223.48	0.275035
2224.91	0.469494
2226.34	0.234426
2227.78	0.195624
2229.21	0.2051
2230.64	0.952106
2232.07	0.370002
2233.5	0.411415
2234.93	0.28986
2236.36	0.790322
2237.79	0.736355
2239.22	0.227287
2240.65	0.30751
2242.08	0.356596
2243.5	0.325157
2244.93	0.620217
2246.36	0.360102
2247.79	0.750993
2249.22	0.210526
2250.64	0.124915
2252.07	0.0217009
2253.5	0.194443
2254.92	0.204675
2256.35	0.32975
2257.78	0.132175
2259.2	0.0831113
2260.63	0.0689068
2262.05	0.251471
2263.48	0.143182
2264.9	-0.0787821
2266.33	0.072681
2267.75	0.370045
2269.18	0.390191
2270.6	0.491067
2272.02	0.135632
2273.45	0.284773
2274.87	0.091959
2276.29	0.469514
2277.71	0.162881
2279.14	0.00285482
2280.56	-0.0920858
2281.98	0.302148
2283.4	-0.266078
2284.82	-0.0838819
2286.24	0.294461
2287.66	0.363098
2289.08	0.0728097
2290.5	0.109442
2291.92	0.0809412
2293.34	0.281479
2294.76	0.547612
2296.18	-0.626564
2297.6	0.228812
2299.02	-0.14375
2300.44	0.0735559
2301.86	0.242105
2303.27	0.263402
2304.69	0.0878692
2306.11	0.256974
2307.53	0.16304
2308.94	-0.0793877
2310.36	0.285942
2311.78	-0.0396934
2313.19	0.440707
2314.61	0.0987835
2316.02	0.152419
2317.44	0.14086
2318.85	0.129649
2320.27	0.283146
2321.68	-0.0592036
2323.1	0.240326
2324.51	0.653421
2325.92	0.536406
2327.34	0.533434
2328.75	0.365013
2330.16	0.724033
2331.58	0.210951
2332.99	-0.00453472
2334.4	0.109879
2335.81	0.109277
2337.23	0.190504
2338.64	-0.00864363
2340.05	0.152917
2341.46	-0.162722
2342.87	0.0467649
2344.28	0.30515
2345.69	-0.0593386
2347.1	-0.0300465
2348.51	-0.0662513
2349.92	-0.0700231
2351.33	-0.123485
2352.74	-0.0960193
2354.15	0.110094
2355.55	-0.0922666
2356.96	-0.0176778
2358.37	0.251886
2359.78	0.00108242
2361.19	0.205315
2362.59	-0.125904
2364	0.353227
2365.41	-0.00995398
2366.81	0.20958
2368.22	-0.0712857
2369.62	0.149274
2371.03	0.273904
2372.44	-0.14821
2373.84	0.0428257
2375.24	0.346673
2376.65	-0.0901752
2378.05	-0.173729
2379.46	0.480636
2380.86	-0.424641
2382.26	0.0978665
2383.67	0.234049
2385.07	0.0338235
2386.47	0.0980253
2387.88	0.162859
2389.28	-0.0663633
2390.68	0.0404024
2392.08	0.275365
2393.48	0.0176587
2394.89	-0.0323362
2396.29	-0.0816994
2397.69	0.0761013
2399.09	0.107195
2400.49	0.345212
2401.89	0.0433812
2403.29	0.106939
2404.69	0.0113716
2406.09	-0.132512
2407.48	-0.10252
2408.88	0.0695286
2410.28	-0.186833
2411.68	-0.125884
2413.08	0.347445
2414.48	-0.0175176
2415.87	-0.0328374
2417.27	0.142932
2418.67	0.129501
2420.06	0.353925
2421.46	0.19816
2422.86	-0.00549603
2424.25	0.218374
2425.65	-0.143955
2427.04	-0.0463271
2428.44	0.052083
2429.83	0.373405
2431.23	0.0133085
2432.62	-0.251758
2434.02	0.117771
2435.41	0.216525
2436.81	-0.178504
2438.2	0.0924735
2439.59	0.0128326
2440.99	0.0595117
2442.38	-0.132398
2443.77	0.0247006
2445.16	-0.357752
2446.56	0.179541
2447.95	0.00313187
2449.34	0.0169554
2450.73	-0.301532
2452.12	0.314489
2453.51	-0.224267
2454.9	0.218778
2456.29	-0.00208092
2457.68	-0.143552
2459.07	0.0470066
2460.46	-0.205767
2461.85	-0.0164108
2463.24	0.140566
2464.63	-0.161232
2466.02	0.0739141
2467.4	0.214073
2468.79	0.00694847
2470.18	-0.0424485
2471.57	-0.0764189
2472.95	-0.142425
2474.34	0.0428867
2475.73	-0.0557451
2477.12	-0.343122
2478.5	-0.143238
2479.89	0.00939465
2481.27	0.334409
2482.66	0.282848
2484.04	0.152684
2485.43	-0.353348
2486.81	-0.0781589
2488.2	0.0706644
2489.58	0.000329971
2490.97	-0.0854897
2492.35	0.186873
2493.73	-0.332318
2495.12	0.283024
2496.5	0.123422
2497.88	0.336516
2499.27	0.100684
2500.65	-0.073247
2502.03	-0.479385
2503.41	0.0716963
2504.79	0.0656748
2506.17	-0.27981
2507.56	-0.132234
2508.94	0.107372
2510.32	0.285414
2511.7	0.20287
2513.08	-0.170071
2514.46	0.0709753
2515.84	0.0828404
2517.22	0.0800614
2518.59	0.245928
2519.97	-0.0313654
2521.35	0.042675
2522.73	0.0244918
2524.11	-0.00962591
2525.49	-0.0290456
2526.86	-0.048635
2528.24	0.0995455
2529.62	0.126832
2530.99	-0.270086
2532.37	0.0184207
2533.75	-0.147808
2535.12	0.218314
2536.5	0.0678401
2537.88	-0.0983763
2539.25	0.23585
2540.63	-0.235483
2542	-0.00862837
2543.38	-0.100278
2544.75	0.112231
2546.12	0.295422
2547.5	0.252161
2548.87	0.0124006
2550.24	0.303706
2551.62	0.184919
2552.99	0.308153
2554.36	-0.0854583
2555.74	0.233385
2557.11	-0.0399122
2558.48	0.156909
2559.85	0.111329
2561.22	-0.0550098
2562.59	0.279353
2563.96	0.250492
2565.34	-0.0204473
2566.71	0.0270638
2568.08	0.302
2569.45	0.0768313
2570.82	0.276048
2572.18	-0.176445
2573.55	0.29577
2574.92	-0.035327
2576.29	0.330978
2577.66	0.105952
2579.03	-0.0283022
2580.4	0.170739
2581.77	0.157163
2583.13	-0.205431
2584.5	0.0685787
2585.87	0.190922
2587.23	0.161795
2588.6	-0.170262
2589.97	0.134323
2591.33	0.0447736
2592.7	-0.287572
2594.06	0.121815
2595.43	0.0455317
2596.79	0.240901
2598.16	0.102595
2599.52	0.175813
2600.89	-0.0682416
2602.25	0.413301
2603.62	0.35157
2604.98	0.230033
2606.34	-0.027
2607.71	-0.118251
2609.07	0.121446
2610.43	0.0887394
2611.79	-0.276122
2613.16	0.0954714
2614.52	7.20024e-005
2615.88	0.189773
2617.24	-0.295224
2618.6	0.0299244
2619.96	-0.123656
2621.32	-0.00722933
2622.68	-0.26406
2624.04	0.0619941
2625.4	-0.089921
2626.76	-0.137448
2628.12	0.276757
2629.48	0.18386
2630.84	0.105825
2632.2	-0.135684
2633.56	-0.272853
2634.92	-0.142659
2636.28	0.0318065
2637.63	0.102273
2638.99	-0.0938139
2640.35	0.16918
2641.71	0.0624371
2643.06	-0.117761
2644.42	-0.0613542
2645.77	0.201447
2647.13	-0.0524111
2648.49	-0.262244
2649.84	0.0279632
2651.2	-0.0357547
2652.55	0.179447
2653.91	-0.0163379
2655.26	0.0673919
2656.62	0.181226
2657.97	0.281272
2659.33	0.0455375
2660.68	0.366002
2662.03	0.0868545
2663.39	0.187256
2664.74	-0.00506639
2666.09	0.137723
2667.44	-0.259291
2668.8	0.188835
2670.15	0.112718
2671.5	0.0371847
2672.85	0.151196
2674.2	0.0187559
2675.55	-0.0114431
2676.91	0.0459318
2678.26	-0.0992074
2679.61	-0.026051
2680.96	0.0914626
2682.31	0.181005
2683.66	-0.018424
2685	-0.0140648
2686.35	-0.154415
2687.7	-0.00471449
2689.05	0.027945
2690.4	-0.0569181
2691.75	-0.0271339
2693.1	0.131966
2694.44	0.261131
2695.79	-0.247618
2697.14	-0.190394
2698.49	0.128517
2699.83	0.0433106
2701.18	0.451925
2702.52	0.15226
2703.87	0.201066
2705.22	0.16337
2706.56	0.256239
2707.91	0.203866
2709.25	0.252734
2710.6	0.359423
2711.94	0.189959
2713.29	0.57247
2714.63	0.170247
2715.97	-0.0286999
2717.32	0.368443
2718.66	0.110938
2720.01	-0.0305767
2721.35	0.118563
2722.69	0.456566
2724.03	0.255659
2725.38	0.41828
2726.72	0.347698
2728.06	0.291421
2729.4	0.45325
2730.74	0.163869
2732.08	0.165524
2733.42	0.138174
2734.76	0.212812
2736.1	0.2149
2737.44	0.58071
2738.78	0.452006
2740.12	0.439448
2741.46	0.426488
2742.8	0.0931735
2744.14	0.180905
2745.48	0.108274
2746.82	0.23866
2748.16	0.194618
2749.49	0.339282
2750.83	0.150448
2752.17	0.237442
2753.51	0.657914
2754.84	0.571199
2756.18	0.557092
2757.52	0.12325
2758.85	0.109671
2760.19	-0.221967
2761.53	0.286221
2762.86	0.36062
2764.2	0.102502
2765.53	0.423131
2766.87	0.367176
2768.2	0.353839
2769.54	0.238197
2770.87	0.164795
2772.2	-0.256216
2773.54	0.130627
2774.87	0.0694861
2776.2	0.0372529
2777.54	-0.167301
2778.87	-0.140995
2780.2	0.1731
2781.53	0.242916
2782.87	0.398829
2784.2	0.0668955
2785.53	0.122356
2786.86	-0.0225921
2788.19	0.105037
2789.52	0.204581
2790.85	0.133182
2792.18	0.0338883
2793.51	-0.0506825
2794.84	-0.00655746
2796.17	-0.0341625
2797.5	0.0520787
2798.83	0.26631
2800.16	0.280213
2801.49	0.194032
2802.82	0.264614
2804.15	0.434659
2805.47	0.233847
2806.8	0.118173
2808.13	0.400373
2809.46	0.369157
2810.78	0.480042
2812.11	0.406836
2813.44	0.263804
2814.76	0.221381
2816.09	0.236893
2817.42	0.0974255
2818.74	0.0576549
2820.07	0.230487
2821.39	0.204518
2822.72	0.234684
2824.04	0.235991
2825.37	-0.00376797
2826.69	0.0964971
2828.02	0.650213
2829.34	0.184988
2830.66	0.371397
2831.99	0.741985
2833.31	0.263195
2834.63	0.251272
2835.96	0.621048
2837.28	0.579922
2838.6	0.708193
2839.92	1.0625
2841.24	1.00671
2842.57	1.00787
2843.89	0.995466
2845.21	1.337
2846.53	1.14203
2847.85	0.933217
2849.17	1.71377
2850.49	1.60364
2851.81	1.49307
2853.13	1.66471
2854.45	2.07619
2855.77	2.10592
2857.09	1.76834
2858.41	1.9535
2859.72	2.16684
2861.04	2.09754
2862.36	1.98561
2863.68	2.00043
2865	2.0009
2866.31	2.36811
2867.63	2.4392
2868.95	2.35556
2870.26	2.58247
2871.58	3.2182
2872.9	2.62734
2874.21	2.76872
2875.53	2.76819
2876.84	2.72443
2878.16	2.86292
2879.47	3.09944
2880.79	3.15328
2882.1	3.20783
2883.42	2.9122
2884.73	3.2354
2886.05	2.73074
2887.36	3.18071
2888.67	2.88637
2889.99	2.91411
2891.3	3.15139
2892.61	3.52805
2893.92	3.17577
2895.24	3.42625
2896.55	3.38333
2897.86	3.63525
2899.17	3.30038
2900.48	3.55386
2901.79	3.30411
2903.11	3.60008
2904.42	3.71429
2905.73	4.01057
2907.04	3.99964
2908.35	3.7936
2909.66	4.30181
2910.97	4.111
2912.27	4.28398
2913.58	4.21829
2914.89	4.38927
2916.2	4.71261
2917.51	4.72644
2918.82	4.99116
2920.13	4.79401
2921.43	5.08697
2922.74	4.79384
2924.05	4.93536
2925.35	5.42735
2926.66	5.02526
2927.97	5.406
2929.27	5.43686
2930.58	5.81665
2931.89	6.33571
2933.19	5.72221
2934.5	5.43021
2935.8	5.54364
2937.11	5.00037
2938.41	5.64508
2939.72	5.10223
2941.02	4.97904
2942.32	5.15007
2943.63	4.98679
2944.93	4.68487
2946.24	4.88726
2947.54	4.71254
2948.84	4.0755
2950.14	4.37503
2951.45	4.02891
2952.75	4.64721
2954.05	3.99002
2955.35	3.78063
2956.65	4.07593
2957.95	4.20507
2959.26	4.11267
2960.56	4.33087
2961.86	4.11659
2963.16	4.04292
2964.46	3.58946
2965.76	3.82245
2967.06	3.7028
2968.36	3.63805
2969.66	3.58661
2970.96	3.56312
2972.25	3.80715
2973.55	3.37607
2974.85	3.46551
2976.15	3.38538
2977.45	3.31808
2978.74	2.98163
2980.04	3.0519
2981.34	3.00832
2982.64	2.59854
2983.93	2.76577
2985.23	2.54028
2986.52	2.54102
2987.82	2.06522
2989.12	2.12419
2990.41	1.90223
2991.71	2.27005
2993	2.0466
2994.3	2.00469
2995.59	1.52633
2996.89	1.9181
2998.18	1.62167
2999.48	1.32564
3000.77	1.50695
3002.06	1.59045
3003.36	1.47801
3004.65	1.44969
3005.94	0.944951
3007.23	1.0839
3008.53	1.24991
3009.82	1.35894
3011.11	1.11779
3012.4	1.01617
3013.69	0.858829
3014.99	1.02261
3016.28	0.922008
3017.57	0.989144
3018.86	0.58347
3020.15	0.831825
3021.44	0.551276
3022.73	0.728625
3024.02	0.738253
3025.31	0.497602
3026.6	0.700334
3027.89	1.05521
3029.18	0.580848
3030.46	0.550467
3031.75	0.148391
3033.04	0.561869
3034.33	0.492203
3035.62	0.518592
3036.9	1.05385
3038.19	0.567274
3039.48	0.946832
3040.76	0.691823
3042.05	0.546386
3043.34	0.757559
3044.62	0.859314
3045.91	1.05788
3047.19	0.861788
3048.48	0.722549
3049.77	0.557877
3051.05	0.626485
3052.34	0.804823
3053.62	0.682854
3054.9	0.587516
3056.19	0.736701
3057.47	1.0074
3058.76	0.772902
3060.04	0.851491
3061.32	0.712491
3062.61	0.574364
3063.89	0.709348
3065.17	0.98144
3066.45	0.860381
3067.74	0.835236
3069.02	0.728705
3070.3	0.689778
3071.58	0.595562
3072.86	0.812943
3074.14	0.757097
3075.42	0.251976
3076.7	0.371639
3077.99	0.491411
3079.26	0.503335
3080.54	0.394331
3081.82	0.300104
3083.1	0.369577
3084.38	0.38524
3085.66	0.292245
3086.94	0.307292
3088.22	0.457332
3089.5	0.280898
3090.78	-0.235242
3092.05	-0.0052681
3093.33	0.116086
3094.61	0.183253
3095.89	0.413179
3097.16	0.358267
3098.44	0.0185542
3099.72	0.274923
3100.99	0.409017
3102.27	0.231467
3103.54	0.203022
3104.82	0.337298
3106.1	0.296075
3107.37	0.62088
3108.65	0.24272
3109.92	-0.0129542
3111.2	-0.0920711
3112.47	0.127225
3113.74	0.455306
3115.02	-0.124817
3116.29	0.256918
3117.56	0.0682745
3118.84	0.190473
3120.11	-0.000375271
3121.38	0.201079
3122.66	0.306849
3123.93	0.16836
3125.2	0.138287
3126.47	0.0678363
3127.74	0.0518489
3129.01	0.0767007
3130.29	0.250372
3131.56	-0.29254
3132.83	0.164476
3134.1	0.039855
3135.37	0.184691
3136.64	0.0453548
3137.91	0.0268893
3139.18	-0.194122
3140.45	-0.105567
3141.72	-0.16524
3142.99	0.0305057
3144.26	0.0918632
3145.52	-0.0343695
3146.79	0.0410171
3148.06	0.0496588
3149.33	-0.0217576
