200.43	0.826766
202.244	0.84693
204.059	0.867966
205.873	0.427585
207.688	0.352431
209.501	0.131037
211.314	-0.0424881
213.127	0.0501165
214.941	-0.0523472
216.753	-0.00979614
218.564	0.395923
220.375	0.026969
222.186	-0.195784
223.999	-0.320991
225.809	0.230893
227.618	-0.087347
229.428	-0.164213
231.236	-0.0966864
233.045	0.163446
234.855	0.254749
236.663	-0.159377
238.471	0.0788765
240.278	0.101978
242.085	-0.114404
243.891	0.273057
245.698	0.178081
247.503	-0.159632
249.309	0.0799961
251.116	0.293096
252.921	-0.244308
254.725	-0.179531
256.529	0.222319
258.333	0.238731
260.136	0.0635805
261.939	0.251216
263.742	0.0786943
265.544	0.316498
267.346	0.0244036
269.148	-0.0511522
270.949	-0.175607
272.75	-0.0357637
274.55	0.15121
276.351	-0.0970287
278.15	0.0390167
279.95	-0.284207
281.749	0.426397
283.548	0.148434
285.346	0.446449
287.144	0.0231819
288.942	0.176156
290.739	0.0179272
292.536	-0.426344
294.333	0.303154
296.129	-0.114689
297.925	0.352865
299.721	0.58154
301.514	0.141122
303.309	0.345012
305.104	0.237518
306.898	0.0816817
308.692	0.235687
310.486	0.509026
312.279	0.187591
314.072	0.200905
315.862	0.310802
317.654	1.20798
319.446	0.55838
321.238	0.0998349
323.029	0.332952
324.819	0.0655518
326.608	0.44253
328.398	0.318071
330.188	0.216843
331.977	0.138518
333.766	0.704841
335.553	0.3604
337.341	0.373103
339.129	0.695178
340.917	0.872302
342.704	0.427088
344.489	0.627303
346.275	0.612768
348.062	0.168969
349.845	0.012217
351.631	0.332909
353.416	0.03262
355.201	0.757445
356.984	0.288471
358.768	0.0334287
360.552	0.135046
362.333	-0.00216055
364.116	0.193165
365.899	0.60143
367.68	0.533634
369.462	0.204462
371.243	0.420093
373.023	-0.00411463
374.804	0.612176
376.585	0.306479
378.363	-0.4462
380.143	-0.0424304
381.923	0.196668
383.7	0.883244
385.479	0.653191
387.256	0.236336
389.034	0.924699
390.812	0.439199
392.588	0.0718737
394.365	-0.0131512
396.14	0.183893
397.916	0.146177
399.691	0.249238
401.467	-0.0942807
403.24	0.313339
405.015	0.555966
406.788	0.163925
408.563	-0.463208
410.335	0.435403
412.109	0.160258
413.88	0.307865
415.654	-0.107156
417.424	0.158853
419.197	0.0264406
420.967	0.152345
422.739	0.418966
424.508	0.544267
426.279	-0.082355
428.048	0.135548
429.819	0.42348
431.587	-0.32138
433.356	-0.127152
435.124	0.25505
436.891	-0.184195
438.66	0.00976467
440.426	0.413836
442.194	0.558178
443.96	0.020884
445.725	0.37312
447.492	0.325984
449.257	0.0213475
451.021	0.18458
452.787	-0.00238466
454.551	0.487555
456.314	0.370736
458.079	-0.258348
459.842	0.184027
461.604	-0.0481381
463.368	0.488045
465.13	-0.182638
466.891	-0.0611534
468.654	-0.123651
470.415	0.512792
472.175	0.452358
473.935	0.414605
475.696	0.561843
477.456	0.963744
479.215	0.5489
480.973	0.203212
482.733	-0.165606
484.491	0.188397
486.249	0.334227
488.006	0.132131
489.765	0.5144
491.522	0.547895
493.278	0.885707
495.034	0.475952
496.789	0.463316
498.544	1.03619
500.301	0.366872
502.056	0.564317
503.81	0.620481
505.564	0.299804
507.317	0.706739
509.071	0.595324
510.825	0.576756
512.578	0.0863557
514.33	0.46549
516.082	0.349483
517.833	0.585412
519.585	0.373769
521.335	0.255747
523.086	0.48975
524.836	0.324338
526.586	0.581349
528.335	0.158166
530.085	0.227477
531.835	0.296433
533.584	0.622219
535.332	0.315162
537.08	0.42824
538.827	-0.113617
540.574	0.254353
542.321	0.481142
544.068	0.753632
545.814	0.142465
547.56	0.0202761
549.305	0.269464
551.05	0.286695
552.795	0.165247
554.54	-0.140646
556.282	0.0159483
558.025	-0.288708
559.769	0.121765
561.512	0.117563
563.255	-0.0702262
564.997	-0.257325
566.739	-0.328881
568.481	0.197088
570.223	0.0119119
571.964	0.378425
573.705	0.126652
575.443	0.151434
577.183	-0.23562
578.923	0.181432
580.663	-0.342244
582.402	-0.452739
584.141	0.516843
585.879	0.520556
587.615	0.592351
589.353	-0.0729523
591.09	0.0432539
592.828	0.366159
594.564	0.113758
596.299	0.137477
598.035	0.0461464
599.771	0.115623
601.506	0.092504
603.242	0.505478
604.974	-0.0484161
606.709	-0.0512619
608.443	-0.12356
610.177	-0.241778
611.908	0.168024
613.642	0.256988
615.374	0.0484266
617.105	0.0463529
618.837	0.501976
620.569	0.201031
622.3	0.151186
624.03	0.443698
625.761	0.118995
627.491	0.206379
629.219	0.431987
630.949	0.134374
632.677	0.180518
634.406	-0.000790119
636.135	-0.0910439
637.861	0.182791
639.59	0.0895452
641.318	0.769799
643.043	0.353365
644.77	0.232713
646.495	0.476444
648.222	0.0619044
649.948	0.377075
651.672	0.672144
653.398	0.674732
655.121	0.497838
656.846	0.0491004
658.569	0.215551
660.293	0.564628
662.015	0.296615
663.738	0.506487
665.46	0.829134
667.183	0.258696
668.903	0.716679
670.626	0.649158
672.346	0.354152
674.067	0.472763
675.787	0.455568
677.508	0.416317
679.226	1.08909
680.947	0.704957
682.665	0.640941
684.385	0.552265
686.102	0.78443
687.821	0.278506
689.538	0.554838
691.254	0.185684
692.972	0.668369
694.688	0.827996
696.406	0.50326
698.121	1.09866
699.835	0.496099
701.552	0.882205
703.266	0.186928
704.98	0.778254
706.695	0.771625
708.409	0.12261
710.121	0.184677
711.836	0.681358
713.548	0.765235
715.26	0.574581
716.973	1.13767
718.685	0.787365
720.396	0.642925
722.108	0.817647
723.818	0.741837
725.528	0.688806
727.238	0.95364
728.949	0.877294
730.658	0.891449
732.367	0.792051
734.075	0.624826
735.785	1.02302
737.493	1.08198
739.2	0.690135
740.907	1.11114
742.614	1.03683
744.322	1.1437
746.028	1.25152
747.734	0.662914
749.439	1.11019
751.144	0.52369
752.849	1.22018
754.555	1.15296
756.26	0.749202
757.963	1.29187
759.667	0.844895
761.37	1.14214
763.073	1.14689
764.775	1.46759
766.477	1.38118
768.179	1.08985
769.883	1.52031
771.584	1.27094
773.285	1.3823
774.986	1.74199
776.686	1.85331
778.386	1.129
780.085	1.80778
781.785	1.83171
783.484	1.40316
785.182	1.65265
786.881	2.08154
788.579	2.0552
790.276	1.41555
791.974	1.79178
793.671	2.09833
795.367	1.998
797.064	1.80839
798.76	1.50773
800.456	1.63647
802.151	1.85614
803.846	1.62637
805.541	1.8238
807.234	2.0429
808.928	1.56468
810.622	1.49012
812.315	1.5495
814.008	1.76519
815.701	1.51018
817.394	1.63582
819.086	2.09651
820.778	1.97597
822.468	1.61047
824.159	2.20484
825.85	1.97505
827.541	1.4353
829.231	1.78864
830.921	1.96607
832.609	1.70018
834.298	2.05981
835.987	1.55077
837.676	1.64356
839.364	1.51231
841.051	1.87117
842.738	1.84938
844.426	1.42493
846.113	1.67131
847.798	1.56136
849.484	1.74396
851.171	1.68238
852.857	1.82387
854.54	2.03368
856.226	1.45764
857.911	1.23937
859.593	1.28952
861.278	1.33842
862.961	1.63398
864.645	1.50061
866.327	1.50169
868.01	1.59247
869.692	1.20931
871.373	1.75061
873.055	0.780339
874.735	1.07329
876.416	1.45659
878.097	1.38858
879.776	1.47848
881.457	1.22949
883.135	0.934797
884.815	1.51972
886.495	1.13294
888.172	1.12879
889.851	0.762674
891.528	1.11711
893.206	1.31244
894.882	1.19157
896.56	1.24996
898.237	1.46467
899.912	1.13986
901.589	1.48733
903.263	1.16222
904.94	1.10593
906.614	1.29547
908.289	1.66333
909.962	1.05116
911.635	0.974839
913.31	1.34364
914.982	1.46776
916.656	0.881804
918.328	1.1169
920.001	1.01949
921.672	1.63054
923.345	1.44564
925.015	1.12966
926.685	1.36734
928.357	1.20876
930.026	1.42632
931.698	1.88699
933.366	1.33296
935.035	1.11006
936.705	1.06394
938.373	0.621433
940.041	0.885509
941.71	0.797528
943.377	1.52645
945.044	0.997564
946.712	1.28442
948.378	1.30507
950.044	0.375316
951.709	0.658625
953.376	1.38285
955.041	0.961187
956.706	0.916385
958.372	0.697358
960.036	0.877347
961.699	1.12494
963.362	0.7981
965.027	0.956255
966.69	0.802906
968.352	0.846653
970.014	0.844644
971.676	0.642914
973.339	0.57422
975	0.993003
976.661	0.793839
978.322	0.485042
979.982	0.619093
981.642	0.752958
983.303	0.465323
984.962	0.995418
986.621	0.771374
988.28	1.23202
989.938	0.784685
991.596	0.690945
993.254	0.68552
994.911	0.658072
996.57	0.785147
998.227	1.15459
999.884	1.45731
1001.54	0.680284
1003.2	0.542158
1004.85	0.909781
1006.51	0.397761
1008.16	0.633164
1009.82	1.13177
1011.47	0.314224
1013.12	0.812984
1014.78	0.720018
1016.43	0.386617
1018.08	0.272702
1019.74	0.509345
1021.39	0.549726
1023.04	0.0225258
1024.69	0.74185
1026.34	0.587306
1028	0.716852
1029.65	0.802224
1031.3	0.886688
1032.95	0.249537
1034.6	-0.104442
1036.25	0.347823
1037.9	0.145291
1039.54	0.138906
1041.19	0.61146
1042.84	0.562548
1044.49	0.905962
1046.14	0.446843
1047.78	0.141223
1049.43	0.423085
1051.08	0.575512
1052.72	0.424402
1054.37	0.490772
1056.02	0.144207
1057.66	0.666858
1059.31	-0.0717092
1060.95	0.254597
1062.6	-0.267628
1064.24	0.66638
1065.88	0.295061
1067.53	0.727302
1069.17	0.550242
1070.81	0.307703
1072.45	0.607934
1074.1	0.387473
1075.74	0.146157
1077.38	0.621485
1079.02	0.425311
1080.66	0.815158
1082.3	0.597831
1083.94	-0.248852
1085.58	0.702906
1087.22	0.00586939
1088.86	0.282634
1090.5	0.47126
1092.14	0.269626
1093.78	0.348756
1095.42	0.168921
1097.05	0.377962
1098.69	0.26446
1100.33	0.259903
1101.96	0.342699
1103.6	0.103945
1105.24	0.0167179
1106.87	0.209485
1108.51	0.143955
1110.14	-0.00826931
1111.78	0.139467
1113.41	0.651175
1115.05	-0.040802
1116.68	0.447631
1118.31	0.656741
1119.95	0.266168
1121.58	0.34778
1123.21	0.793879
1124.85	0.0208006
1126.48	0.14712
1128.11	0.231116
1129.74	0.272789
1131.37	0.571383
1133	-0.0704808
1134.63	0.249576
1136.26	0.0134449
1137.89	0.204063
1139.52	0.0306444
1141.15	0.369082
1142.78	0.280042
1144.41	0.319132
1146.04	-0.195646
1147.66	-0.00615168
1149.29	-0.1784
1150.92	0.267449
1152.55	0.223307
1154.17	0.0299234
1155.8	0.240748
1157.43	0.110928
1159.05	0.0239501
1160.68	-0.168764
1162.3	0.234634
1163.93	0.319726
1165.55	-0.126383
1167.17	0.320339
1168.8	-0.0203171
1170.42	-0.000631809
1172.05	0.633845
1173.67	0.438341
1175.29	0.178567
1176.91	0.257999
1178.54	0.146773
1180.16	-0.133169
1181.78	0.370524
1183.4	-0.204155
1185.02	0.257196
1186.64	-0.148391
1188.26	0.310611
1189.88	0.388027
1191.5	0.379723
1193.12	-0.344471
1194.74	-0.521363
1196.36	-0.215539
1197.97	0.194714
1199.59	0.207745
1201.21	-0.0284028
1202.83	0.196921
1204.44	0.632439
1206.06	0.589294
1207.68	0.547116
1209.29	0.254838
1210.91	0.170669
1212.52	0.502386
1214.14	0.0612674
1215.75	0.118952
1217.37	0.508153
1218.98	0.376333
1220.59	0.244681
1222.21	0.300385
1223.82	0.253217
1225.43	0.331371
1227.05	0.638075
1228.66	0.531778
1230.27	0.240366
1231.88	0.611399
1233.49	0.07374
1235.1	0.7357
1236.72	0.427094
1238.33	0.511897
1239.94	0.783312
1241.55	0.806797
1243.16	0.809371
1244.76	0.707933
1246.37	0.585065
1247.98	0.606328
1249.59	1.12361
1251.2	1.10265
1252.8	1.08185
1254.41	0.647893
1256.02	0.793858
1257.62	0.630411
1259.23	0.17801
1260.84	0.471118
1262.44	0.681939
1264.05	1.14152
1265.66	0.710075
1267.26	0.858236
1268.86	0.860667
1270.47	0.634276
1272.07	1.02915
1273.67	0.863458
1275.28	0.0959888
1276.88	1.02748
1278.48	0.714897
1280.09	0.899055
1281.69	0.91725
1283.29	0.956181
1284.89	0.726629
1286.49	0.869972
1288.09	0.352591
1289.69	0.951945
1291.29	0.663002
1292.89	0.394723
1294.49	0.373924
1296.09	0.496847
1297.69	0.907592
1299.29	0.904097
1300.89	0.590281
1302.49	0.81165
1304.08	1.2789
1305.68	1.1896
1307.28	0.812558
1308.88	1.01054
1310.47	1.18758
1312.07	0.750374
1313.66	1.21444
1315.26	0.717989
1316.85	1.2235
1318.45	1.25939
1320.04	1.05052
1321.64	0.882061
1323.23	0.590733
1324.83	1.13219
1326.42	0.981086
1328.01	1.25568
1329.61	1.08452
1331.2	0.874448
1332.79	0.464341
1334.38	1.63131
1335.97	0.901215
1337.56	1.20093
1339.16	1.39905
1340.75	1.2734
1342.34	0.784135
1343.93	0.917588
1345.52	0.527929
1347.11	0.620511
1348.7	1.37503
1350.29	0.648989
1351.87	0.705834
1353.46	0.604136
1355.05	0.603368
1356.64	1.06246
1358.22	1.12147
1359.81	0.580687
1361.4	0.738184
1362.98	0.894913
1364.57	0.413246
1366.16	0.90859
1367.74	0.448092
1369.33	0.586019
1370.91	0.625337
1372.5	0.645715
1374.08	0.686783
1375.67	0.708439
1377.25	0.431693
1378.83	0.492883
1380.41	0.871726
1382	0.33445
1383.58	0.353391
1385.16	1.18658
1386.74	0.588208
1388.33	0.606095
1389.91	0.08849
1391.49	0.405262
1393.07	0.0479097
1394.65	0.504159
1396.23	0.484193
1397.81	0.265527
1399.39	0.204864
1400.97	-0.0346327
1402.55	0.794623
1404.13	0.238099
1405.7	0.532763
1407.28	0.353389
1408.86	0.807004
1410.44	0.608878
1412.01	0.272626
1413.59	0.982399
1415.17	0.368974
1416.74	0.445774
1418.32	0.620758
1419.89	0.716976
1421.47	0.676019
1423.04	0.773996
1424.62	0.577887
1426.19	0.323657
1427.77	0.246946
1429.34	1.0558
1430.91	0.722412
1432.49	1.05735
1434.06	0.958616
1435.63	0.741606
1437.2	1.11469
1438.78	1.03601
1440.35	0.958107
1441.92	1.56876
1443.49	1.59036
1445.06	1.12092
1446.63	1.20191
1448.2	0.948861
1449.77	0.853241
1451.34	1.3478
1452.91	1.33162
1454.48	1.09934
1456.05	0.689846
1457.62	1.32276
1459.18	1.04959
1460.75	1.16874
1462.32	0.932352
1463.89	1.12757
1465.45	0.771449
1467.02	0.552956
1468.59	0.747237
1470.15	0.549468
1471.72	0.568429
1473.28	0.235096
1474.85	0.647588
1476.41	0.570086
1477.98	0.492689
1479.54	0.552486
1481.1	0.377004
1482.67	0.260307
1484.23	0.261122
1485.79	-0.267226
1487.36	0.163853
1488.92	0.339279
1490.48	0.376321
1492.04	0.196742
1493.61	0.445707
1495.17	0.302696
1496.73	0.198233
1498.29	0.424679
1499.85	0.126171
1501.41	0.139697
1502.97	0.0764284
1504.53	-0.102369
1506.09	-0.319366
1507.65	0.179204
1509.2	-0.115983
1510.76	0.457043
1512.32	0.488454
1513.88	0.327034
1515.43	-0.122174
1516.99	0.428427
1518.55	0.364641
1520.1	0.109877
1521.66	0.238509
1523.22	0.729806
1524.77	0.493951
1526.33	-0.123396
1527.88	0.383714
1529.44	0.451683
1530.99	0.272609
1532.54	0.359837
1534.1	0.371696
1535.65	0.346433
1537.21	0.435254
1538.76	-0.155107
1540.31	0.406213
1541.86	0.344848
1543.42	0.114163
1544.97	0.579445
1546.52	0.555307
1548.07	0.324707
1549.62	0.61938
1551.17	0.651431
1552.72	0.197421
1554.27	0.567247
1555.82	0.134369
1557.37	0.748526
1558.92	0.654491
1560.47	0.748437
1562.02	1.01143
1563.56	0.323814
1565.11	0.382811
1566.66	0.572537
1568.21	0.79949
1569.75	0.335588
1571.3	0.431361
1572.85	0.769621
1574.39	0.84645
1575.94	0.811295
1577.49	0.925635
1579.03	0.909603
1580.57	0.576593
1582.12	0.953712
1583.66	0.75251
1585.21	1.20581
1586.75	0.912002
1588.3	0.748985
1589.84	0.941217
1591.38	1.39535
1592.92	0.63232
1594.47	0.936246
1596.01	1.03429
1597.55	1.17018
1599.09	1.06292
1600.63	0.693464
1602.17	1.03718
1603.71	0.667687
1605.25	1.27429
1606.79	1.27897
1608.33	0.737124
1609.87	0.964192
1611.41	0.870084
1612.95	0.69951
1614.49	0.772184
1616.03	0.91947
1617.57	1.04815
1619.1	0.821577
1620.64	0.053153
1622.18	0.858877
1623.72	0.616522
1625.25	0.711211
1626.79	0.992493
1628.32	0.48693
1629.86	0.710119
1631.39	0.670683
1632.93	1.00456
1634.46	0.92758
1636	0.944548
1637.53	0.812976
1639.07	0.476885
1640.6	0.905183
1642.13	1.05329
1643.67	0.679104
1645.2	1.03023
1646.73	0.878155
1648.26	0.726068
1649.8	0.704435
1651.33	0.813406
1652.86	0.960234
1654.39	0.940886
1655.92	1.08884
1657.45	1.14401
1658.98	0.661481
1660.51	0.955993
1662.04	1.26762
1663.57	1.18974
1665.1	1.18543
1666.63	0.830732
1668.16	0.772401
1669.68	1.43406
1671.21	0.917033
1672.74	1.04586
1674.27	1.0829
1675.79	0.806787
1677.32	1.24805
1678.85	0.989105
1680.37	0.656105
1681.9	0.35971
1683.42	0.485793
1684.95	0.575057
1686.47	0.371024
1688	-0.125715
1689.52	0.22101
1691.05	0.329524
1692.57	0.54779
1694.09	0.528009
1695.62	0.124216
1697.14	0.214025
1698.66	0.340027
1700.18	0.392585
1701.71	0.535901
1703.23	0.478145
1704.75	0.0922971
1706.27	0.0888643
1707.79	0.176137
1709.31	0.154222
1710.83	0.18684
1712.35	0.328321
1713.87	0.288507
1715.39	0.194494
1716.91	0.263389
1718.43	-0.318543
1719.95	0.346426
1721.47	0.342829
1722.99	0.267508
1724.5	0.373159
1726.02	0.0114121
1727.54	0.0648971
1729.06	0.424935
1730.57	0.028769
1732.09	0.27557
1733.61	-0.271245
1735.12	0.0480814
1736.64	0.0744109
1738.15	-0.0142822
1739.67	0.24211
1741.18	-0.0929041
1742.7	0.19144
1744.21	-0.0368252
1745.72	-0.0807152
1747.24	0.170682
1748.75	0.123008
1750.26	0.267592
1751.77	0.0650334
1753.29	-0.193509
1754.8	0.0226693
1756.31	-0.168147
1757.82	0.179506
1759.33	-0.112158
1760.84	-0.0258203
1762.36	-0.353744
1763.87	0.0338712
1765.38	0.00260401
1766.89	-0.0859118
1768.4	0.0313931
1769.91	0.143293
1771.41	0.00200987
1772.92	-0.0717568
1774.43	0.124891
1775.94	0.266158
1777.45	0.0376797
1778.95	0.110225
1780.46	-0.174335
1781.97	-0.0351791
1783.48	-0.0977015
1784.98	0.0117059
1786.49	0.156851
1787.99	-0.178226
1789.5	0.422296
1791.01	0.170781
1792.51	0.050303
1794.01	0.0743442
1795.52	0.028717
1797.02	0.233831
1798.53	0.174958
1800.03	0.139524
1801.53	0.120883
1803.04	0.205103
1804.54	-0.228239
1806.04	-0.177269
1807.54	0.0176811
1809.05	-0.196049
1810.55	-0.0540972
1812.05	0.24611
1813.55	-0.106674
1815.05	0.138777
1816.55	-0.0293493
1818.05	0.239956
1819.55	-0.122671
1821.05	-0.0842261
1822.55	0.0250034
1824.05	0.234576
1825.55	0.267939
1827.05	0.180156
1828.55	0.0280104
1830.04	0.155806
1831.54	0.251397
1833.04	0.110451
1834.54	0.111517
1836.03	-0.110027
1837.53	0.226667
1839.03	0.373721
1840.52	-0.0289583
1842.02	0.463634
1843.51	0.0972843
1845.01	-0.0171919
1846.5	0.461961
1848	-0.021575
1849.49	0.102391
1850.99	-0.0328045
1852.48	0.151646
1853.97	0.223571
1855.47	0.0410504
1856.96	0.22294
1858.45	0.101379
1859.94	0.184062
1861.44	0.354115
1862.93	0.280565
1864.42	0.19548
1865.91	0.100218
1867.4	0.0425949
1868.89	0.00587702
1870.38	0.166498
1871.87	0.0140681
1873.36	0.0332084
1874.85	0.234198
1876.34	0.127351
1877.83	0.331925
1879.32	0.284782
1880.81	0.384744
1882.3	0.27499
1882.57	0.245365
1884.07	0.454158
1885.56	0.365985
1887.06	0.416603
1888.55	0.310151
1890.04	0.0821829
1891.54	0.585538
1893.03	0.637721
1894.52	0.482625
1896.02	0.415579
1897.51	0.0534377
1899	0.178116
1900.49	0.563058
1901.98	0.23358
1903.47	0.285564
1904.96	0.510322
1906.45	0.247832
1907.94	0.767028
1909.43	0.331559
1910.92	0.226779
1912.41	0.0012641
1913.9	-0.102371
1915.39	0.296952
1916.88	0.418487
1918.37	-0.0843749
1919.85	0.0538383
1921.34	0.347794
1922.83	0.26093
1924.32	0.295922
1925.8	0.123981
1927.29	0.437521
1928.78	0.370652
1930.26	0.0439739
1931.75	0.392048
1933.23	-0.00550985
1934.72	0.495992
1936.2	0.113527
1937.69	-0.0618405
1939.17	0.246508
1940.66	-0.0151334
1942.14	0.000236034
1943.63	0.482051
1945.11	0.257113
1946.59	0.170481
1948.07	0.462855
1949.56	0.409941
1951.04	0.511307
1952.52	0.284956
1954	0.299225
1955.48	0.244695
1956.96	0.0531425
1958.45	0.0167518
1959.93	0.495518
1961.41	0.151198
1962.89	0.115808
1964.37	0.42296
1965.85	0.198606
1967.32	0.282065
1968.8	0.433375
1970.28	0.464417
1971.76	0.392738
1973.24	0.26992
1974.72	0.624899
1976.19	0.400033
1977.67	0.226688
1979.15	0.325973
1980.63	0.391081
1982.1	0.0310278
1983.58	0.350694
1985.05	0.0077014
1986.53	0.122974
1988	0.187222
1989.48	0.183857
1990.95	0.0625167
1992.43	0.144926
1993.9	0.00817633
1995.38	0.091774
1996.85	0.192498
1998.32	0.546438
1999.8	0.595928
2001.27	0.273687
2002.74	0.60917
2004.22	0.000197411
2005.69	0.419884
2007.16	0.0986524
2008.63	0.350793
2010.1	0.451909
2011.57	0.519697
2013.04	0.301363
2014.51	0.520313
2015.98	0.16658
2017.45	0.0815148
2018.92	0.231297
2020.39	0.582173
2021.86	0.546349
2023.33	0.0744023
2024.8	0.173874
2026.27	0.240558
2027.74	0.341769
2029.2	-0.0759301
2030.67	0.597608
2032.14	0.19817
2033.61	0.268841
2035.07	0.171596
2036.54	0.124409
2038.01	0.0936241
2039.47	-0.189551
2040.94	0.249967
2042.4	0.572252
2043.87	0.424318
2045.33	0.142292
2046.8	0.281418
2048.26	0.370354
2049.72	0.256877
2051.19	0.108852
2052.65	0.549921
2054.12	0.112784
2055.58	0.230974
2057.04	0.348158
2058.5	0.414151
2059.97	0.631579
2061.43	0.512402
2062.89	-0.19525
2064.35	0.393953
2065.81	0.529349
2067.27	0.227784
2068.73	0.414674
2070.19	0.315653
2071.65	0.418668
2073.11	0.302708
2074.57	0.371762
2076.03	0.187982
2077.49	0.34074
2078.95	0.156411
2080.41	0.157005
2081.87	0.527604
2083.32	0.426272
2084.78	0.341287
2086.24	0.457693
2087.7	0.439048
2089.15	0.319289
2090.61	0.518642
2092.07	0.650577
2093.52	0.396376
2094.98	0.611812
2096.43	0.742826
2097.89	0.186499
2099.34	0.41711
2100.8	0.362868
2102.25	0.275453
2103.71	0.288928
2105.16	0.33665
2106.61	0.285184
2108.07	0.217778
2109.52	0.417405
2110.97	0.599853
2112.43	0.464617
2113.88	0.411575
2115.33	0.54052
2116.78	0.435884
2118.23	0.71369
2119.68	0.294939
2121.13	0.442053
2122.59	0.640148
2124.04	0.258803
2125.49	0.557782
2126.94	0.508327
2128.39	0.673651
2129.83	0.605899
2131.28	0.1398
2132.73	0.302659
2134.18	0.299894
2135.63	0.380346
2137.08	0.296452
2138.53	0.775733
2139.97	0.512616
2141.42	0.746471
2142.87	0.352903
2144.31	0.935524
2145.76	0.608434
2147.21	0.76101
2148.65	0.267283
2150.1	0.253123
2151.54	0.569665
2152.99	0.587321
2154.43	0.471856
2155.88	0.405797
2157.32	0.538587
2158.77	0.439952
2160.21	0.47474
2161.65	0.510725
2163.1	0.713785
2164.54	0.420418
2165.98	0.857709
2167.43	0.298653
2168.87	0.818756
2170.31	0.556413
2171.75	0.708342
2173.19	0.875573
2174.64	0.45964
2176.07	0.459213
2177.52	0.276031
2178.96	0.708539
2180.4	0.626294
2181.84	0.378361
2183.28	0.380192
2184.72	0.415461
2186.15	0.966504
2187.59	0.469491
2189.03	0.737864
2190.47	0.640109
2191.91	0.34234
2193.35	0.676685
2194.78	0.177642
2196.22	0.509804
2197.66	0.291333
2199.09	0.786913
2200.53	0.450355
2201.97	0.545855
2203.4	0.392825
2204.84	0.423109
2206.27	0.470628
2207.71	0.617844
2209.14	0.483278
2210.58	0.745503
2212.01	0.0804405
2213.45	0.35791
2214.88	0.502766
2216.31	0.499296
2217.75	0.265653
2219.18	0.626714
2220.61	0.378144
2222.05	0.376998
2223.48	0.358872
2224.91	0.553854
2226.34	0.220842
2227.78	0.446187
2229.21	0.604516
2230.64	0.466672
2232.07	0.886106
2233.5	0.306386
2234.93	0.218924
2236.36	0.524505
2237.79	0.340966
2239.22	0.191588
2240.65	0.353584
2242.08	0.647226
2243.5	0.452411
2244.93	0.469851
2246.36	0.127954
2247.79	0.404761
2249.22	0.223449
2250.64	0.464373
2252.07	0.264226
2253.5	0.470408
2254.92	0.205293
2256.35	0.379922
2257.78	0.263917
2259.2	-0.174529
2260.63	-0.0594382
2262.05	0.674104
2263.48	0.711113
2264.9	0.602089
2266.33	0.4764
2267.75	0.203586
2269.18	0.304215
2270.6	0.322968
2272.02	0.17855
2273.45	0.424823
2274.87	0.264008
2276.29	0.347666
2277.71	0.447781
2279.14	0.107813
2280.56	0.697112
2281.98	0.422131
2283.4	0.489563
2284.82	0.344908
2286.24	0.575762
2287.66	0.562088
2289.08	0.499714
2290.5	0.257832
2291.92	0.5554
2293.34	0.836955
2294.76	0.349722
2296.18	0.565865
2297.6	0.258121
2299.02	-0.0170879
2300.44	0.54348
2301.86	0.20288
2303.27	0.0754142
2304.69	0.06282
2306.11	0.13227
2307.53	-0.159947
2308.94	0.0896816
2310.36	-0.00622749
2311.78	-0.00377035
2313.19	0.27839
2314.61	0.0836806
2316.02	0.350389
2317.44	0.0906754
2318.85	0.144182
2320.27	0.527445
2321.68	0.035717
2323.1	0.351105
2324.51	0.00477123
2325.92	0.48196
2327.34	0.495855
2328.75	0.888243
2330.16	0.670921
2331.58	0.289849
2332.99	0.206094
2334.4	-0.0580277
2335.81	0.188077
2337.23	0.285718
2338.64	0.119565
2340.05	0.232102
2341.46	-0.083097
2342.87	-0.102841
2344.28	0.385801
2345.69	0.0873356
2347.1	0.067872
2348.51	0.212127
2349.92	0.355921
2351.33	-0.171232
2352.74	0.0857334
2354.15	0.292636
2355.55	0.254151
2356.96	0.199238
2358.37	-0.0344915
2359.78	-0.0889292
2361.19	0.230086
2362.59	0.483565
2364	0.299146
2365.41	-0.046699
2366.81	0.20626
2368.22	0.216959
2369.62	0.163833
2371.03	0.321254
2372.44	0.447196
2373.84	0.122849
2375.24	-0.24926
2376.65	0.376195
2378.05	-0.205739
2379.46	-0.0648909
2380.86	0.0103912
2382.26	-0.268183
2383.67	0.302085
2385.07	0.0870566
2386.47	0.0565448
2387.88	0.026722
2389.28	0.0695162
2390.68	0.288326
2392.08	-0.145077
2393.48	-0.0840511
2394.89	0.0251741
2396.29	-0.0559907
2397.69	0.197069
2399.09	0.259722
2400.49	-0.0267968
2401.89	0.147608
2403.29	0.194934
2404.69	0.146709
2406.09	0.272498
2407.48	0.238876
2408.88	0.173011
2410.28	0.360605
2411.68	0.389742
2413.08	0.0393796
2414.48	0.0542645
2415.87	0.355103
2417.27	0.340244
2418.67	-0.0856667
2420.06	0.343721
2421.46	0.139568
2422.86	0.331165
2424.25	0.221572
2425.65	-0.0781527
2427.04	0.0503149
2428.44	0.163588
2429.83	0.0714154
2431.23	0.312851
2432.62	0.554618
2434.02	-0.0614243
2435.41	0.25864
2436.81	0.196464
2438.2	0.339755
2439.59	0.132629
2440.99	0.274335
2442.38	0.431444
2443.77	0.143934
2445.16	0.142033
2446.56	0.0131927
2447.95	0.0745397
2449.34	0.294222
2450.73	0.0388808
2452.12	0.211455
2453.51	0.052187
2454.9	0.0992417
2456.29	-0.137976
2457.68	-0.09023
2459.07	-0.279853
2460.46	-0.185154
2461.85	0.114511
2463.24	0.255404
2464.63	0.395783
2466.02	0.141035
2467.4	0.328429
2468.79	-0.0839443
2470.18	-0.0702724
2471.57	-0.041163
2472.95	-0.154324
2474.34	0.0154991
2475.73	0.0588002
2477.12	0.258951
2478.5	0.191778
2479.89	0.203292
2481.27	-0.0202799
2482.66	0.226455
2484.04	0.159374
2485.43	-0.0176854
2486.81	0.17977
2488.2	0.0639372
2489.58	0.430972
2490.97	0.049932
2492.35	0.136547
2493.73	-0.148923
2495.12	0.249618
2496.5	0.0593767
2497.88	0.0868459
2499.27	0.2228
2500.65	0.0953798
2502.03	0.3076
2503.41	-0.206933
2504.79	0.266097
2506.17	0.15221
2507.56	-0.0847058
2508.94	0.247798
2510.32	0.0884814
2511.7	0.0526814
2513.08	0.00215816
2514.46	0.273952
2515.84	0.193949
2517.22	0.23697
2518.59	0.173312
2519.97	-0.0124068
2521.35	0.260057
2522.73	-0.0329962
2524.11	0.52788
2525.49	-0.0403628
2526.86	0.0926003
2528.24	-0.169944
2529.62	0.131229
2530.99	0.0684295
2532.37	0.0828247
2533.75	-0.251276
2535.12	0.0228338
2536.5	0.175355
2537.88	0.0843315
2539.25	-0.0225115
2540.63	-0.266497
2542	0.172429
2543.38	0.0650764
2544.75	0.064569
2546.12	0.0952663
2547.5	-0.115885
2548.87	-0.00791454
2550.24	0.130479
2551.62	0.268574
2552.99	0.193569
2554.36	-0.0794215
2555.74	-0.00397587
2557.11	0.101406
2558.48	-0.11177
2559.85	0.0543418
2561.22	0.190447
2562.59	-0.0518918
2563.96	0.221444
2565.34	-0.292929
2566.71	0.268817
2568.08	0.0122995
2569.45	-0.0623569
2570.82	-0.000598431
2572.18	-0.18132
2573.55	0.123081
2574.92	0.0789208
2576.29	0.110593
2577.66	0.233195
2579.03	-0.25086
2580.4	-0.052825
2581.77	0.144938
2583.13	-0.142739
2584.5	-0.0363531
2585.87	0.13062
2587.23	-0.0509481
2588.6	0.14654
2589.97	-0.11055
2591.33	-0.0494647
2592.7	-0.0493126
2594.06	0.283556
2595.43	0.0249343
2596.79	-0.0374098
2598.16	0.141822
2599.52	-0.148069
2600.89	-0.180666
2602.25	0.0740576
2603.62	0.178062
2604.98	-0.0344977
2606.34	0.145423
2607.71	0.113884
2609.07	0.0365691
2610.43	0.15431
2611.79	0.180665
2613.16	-0.0795088
2614.52	0.140965
2615.88	0.210779
2617.24	-0.0641274
2618.6	-0.17334
2619.96	-0.0274591
2621.32	-0.0158596
2622.68	-0.0188532
2624.04	0.112709
2625.4	-0.352814
2626.76	-0.0871925
2628.12	-0.0158701
2629.48	0.0253701
2630.84	0.200315
2632.2	0.0924692
2633.56	-0.119203
2634.92	-0.0337071
2636.28	-0.111483
2637.63	-0.0409551
2638.99	-0.0149064
2640.35	-0.0775437
2641.71	0.0818524
2643.06	-0.0394592
2644.42	0.282397
2645.77	-0.0305839
2647.13	0.0693641
2648.49	0.109769
2649.84	0.193689
2651.2	0.218175
2652.55	-0.0219202
2653.91	0.398819
2655.26	-0.0454392
2656.62	0.0537071
2657.97	0.0657082
2659.33	0.0198102
2660.68	0.0912118
2662.03	0.0455337
2663.39	-0.117345
2664.74	0.171911
2666.09	-0.0356426
2667.44	-0.330615
2668.8	0.0592222
2670.15	0.0703535
2671.5	-0.121696
2672.85	-0.0950961
2674.2	0.0190368
2675.55	0.0463715
2676.91	0.248191
2678.26	0.0732584
2679.61	0.203524
2680.96	0.0880356
2682.31	-0.0265942
2683.66	0.0335879
2685	-0.12311
2686.35	0.22826
2687.7	0.115258
2689.05	0.248178
2690.4	-0.316889
2691.75	0.0894432
2693.1	0.102771
2694.44	0.187942
2695.79	0.272926
2697.14	0.0251255
2698.49	0.314225
2699.83	0.170046
2701.18	0.027101
2702.52	0.102413
2703.87	0.17851
2705.22	0.0520697
2706.56	0.143129
2707.91	0.161542
2709.25	0.2668
2710.6	0.0669203
2711.94	-0.089684
2713.29	-0.231941
2714.63	-0.228953
2715.97	-0.109674
2717.32	0.329563
2718.66	-0.220395
2720.01	-0.188798
2721.35	0.351893
2722.69	0.00454473
2724.03	0.209944
2725.38	0.153063
2726.72	0.197818
2728.06	0.417005
2729.4	0.112113
2730.74	0.447423
2732.08	0.0988607
2733.42	0.0268478
2734.76	0.0277123
2736.1	-0.000363827
2737.44	0.349806
2738.78	0.132753
2740.12	-0.0408096
2741.46	0.207015
2742.8	0.119965
2744.14	0.308607
2745.48	0.0463529
2746.82	-0.0562396
2748.16	-0.0427322
2749.49	0.0143347
2750.83	-0.0445189
2752.17	-0.088644
2753.51	-0.00213766
2754.84	-0.11839
2756.18	0.35936
2757.52	0.272264
2758.85	-0.0751524
2760.19	0.0699439
2761.53	0.287692
2762.86	0.0716491
2764.2	0.130771
2765.53	-0.0994873
2766.87	0.219731
2768.2	0.191072
2769.54	0.147078
2770.87	0.058774
2772.2	-0.116981
2773.54	0.0675797
2774.87	0.0352368
2776.2	0.319817
2777.54	0.114884
2778.87	0.212655
2780.2	0.00889301
2781.53	0.107204
2782.87	0.0188942
2784.2	-0.112349
2785.53	0.0718784
2786.86	0.155759
2788.19	0.225592
2789.52	0.467607
2790.85	0.0807934
2792.18	0.0522275
2793.51	0.152648
2794.84	0.110137
2796.17	-0.161188
2797.5	0.12435
2798.83	0.0951953
2800.16	-0.0198445
2801.49	-0.10642
2802.82	0.0208359
2804.15	0.147791
2805.47	0.274308
2806.8	0.0301943
2808.13	0.141562
2809.46	0.0677395
2810.78	0.221281
2812.11	-0.178392
2813.44	-0.0662246
2814.76	0.131882
2816.09	-0.0234919
2817.42	0.147922
2818.74	0.163813
2820.07	-0.0328941
2821.39	0.280335
2822.72	0.153744
2824.04	0.140122
2825.37	0.310421
2826.69	0.254107
2828.02	0.254821
2829.34	-0.0130396
2830.66	0.0733581
2831.99	0.202358
2833.31	0.175606
2834.63	0.360949
2835.96	0.163814
2837.28	0.320117
2838.6	0.391185
2839.92	0.702493
2841.24	0.462343
2842.57	0.462902
2843.89	0.83137
2845.21	0.606741
2846.53	1.1033
2847.85	0.964165
2849.17	0.853294
2850.49	1.01076
2851.81	1.0548
2853.13	1.14088
2854.45	1.04297
2855.77	1.04386
2857.09	1.46854
2858.41	1.1728
2859.72	1.37141
2861.04	1.2592
2862.36	1.58443
2863.68	1.6411
2865	1.48589
2866.31	1.27434
2867.63	1.96565
2868.95	1.92379
2870.26	2.12191
2871.58	2.2919
2872.9	2.12337
2874.21	1.94027
2875.53	1.88328
2876.84	1.93818
2878.16	2.31609
2879.47	1.99024
2880.79	2.26937
2882.1	2.1414
2883.42	2.30924
2884.73	2.26707
2886.05	1.69192
2887.36	2.29596
2888.67	2.28202
2889.99	2.12724
2891.3	2.21032
2892.61	2.51714
2893.92	2.15116
2895.24	2.35987
2896.55	2.56901
2897.86	2.73681
2899.17	2.17778
2900.48	2.40286
2901.79	2.71216
2903.11	2.54597
2904.42	2.51977
2905.73	2.7735
2907.04	2.81784
2908.35	2.93271
2909.66	2.76839
2910.97	3.08022
2912.27	3.07019
2913.58	3.53559
2914.89	3.32797
2916.2	3.38504
2917.51	3.5109
2918.82	3.35614
2920.13	3.49508
2921.43	3.28489
2922.74	3.67679
2924.05	4.05562
2925.35	3.89014
2926.66	3.72508
2927.97	4.11921
2929.27	4.09365
2930.58	3.89989
2931.89	4.0972
2933.19	3.74914
2934.5	4.0021
2935.8	4.29703
2937.11	4.00508
2938.41	3.96483
2939.72	3.77106
2941.02	3.36805
2942.32	3.56651
2943.63	3.51429
2944.93	3.61681
2946.24	3.37058
2947.54	2.62086
2948.84	3.438
2950.14	3.02274
2951.45	2.67605
2952.75	2.63606
2954.05	2.86114
2955.35	2.8619
2956.65	2.84929
2957.95	2.97808
2959.26	2.6468
2960.56	2.5693
2961.86	2.01642
2963.16	2.58555
2964.46	2.46713
2965.76	2.67066
2967.06	2.52184
2968.36	2.49848
2969.66	1.95426
2970.96	2.39426
2972.25	2.51107
2973.55	2.4452
2974.85	2.15402
2976.15	2.01708
2977.45	2.10449
2978.74	2.17657
2980.04	1.88139
2981.34	1.97943
2982.64	1.75349
2983.93	1.79507
2985.23	1.54221
2986.52	1.50126
2987.82	1.0116
2989.12	1.183
2990.41	1.48104
2991.71	1.18843
2993	1.09185
2994.3	1.09276
2995.59	1.07882
2996.89	0.909927
2998.18	0.923436
2999.48	0.866926
3000.77	0.782735
3002.06	1.02133
3003.36	0.79761
3004.65	1.0083
3005.94	0.686471
3007.23	0.574387
3008.53	0.321893
3009.82	0.4326
3011.11	0.402901
3012.4	0.77779
3013.69	0.370851
3014.99	0.60598
3016.28	0.548676
3017.57	0.436213
3018.86	0.338082
3020.15	0.824131
3021.44	0.169572
3022.73	0.459676
3024.02	0.318425
3025.31	0.509589
3026.6	0.31239
3027.89	0.447925
3029.18	0.445685
3030.46	0.333895
3031.75	0.264599
3033.04	0.430681
3034.33	0.279386
3035.62	0.34848
3036.9	0.388968
3038.19	0.0699449
3039.48	0.204334
3040.76	0.529718
3042.05	0.510419
3043.34	0.148457
3044.62	0.513412
3045.91	0.29069
3047.19	0.233754
3048.48	0.260328
3049.77	0.520265
3051.05	0.358089
3052.34	0.401111
3053.62	0.403123
3054.9	0.527381
3056.19	0.487116
3057.47	0.486937
3058.76	0.322643
3060.04	0.471446
3061.32	0.633875
3062.61	0.660746
3063.89	0.538962
3065.17	0.323088
3066.45	0.475188
3067.74	0.0296602
3069.02	0.345729
3070.3	0.158388
3071.58	0.487191
3072.86	0.407037
3074.14	0.217218
3075.42	0.298588
3076.7	0.243773
3077.99	0.202796
3079.26	0.176076
3080.54	0.136741
3081.82	0.0441179
3083.1	0.155723
3084.38	0.050631
3085.66	0.189736
3086.94	0.124888
3088.22	0.276628
3089.5	0.129202
3090.78	0.00855637
3092.05	0.186235
3093.33	0.133272
3094.61	-0.150097
3095.89	0.0412693
3097.16	-0.106374
3098.44	-0.308308
3099.72	0.329755
3100.99	0.141012
3102.27	0.196076
3103.54	0.359506
3104.82	0.184736
3106.1	-0.0978251
3107.37	0.242679
3108.65	0.0289359
3109.92	0.424886
3111.2	0.0498395
3112.47	0.0406733
3113.74	0.153643
3115.02	-0.0316629
3116.29	0.175734
3117.56	0.0434394
3118.84	-0.0626049
3120.11	-0.183045
3121.38	0.33304
3122.66	-0.0597434
3123.93	-0.0189757
3125.2	0.0082202
3126.47	0.103247
3127.74	0.0225863
3129.01	0.0233569
3130.29	0.18649
3131.56	-0.123611
3132.83	0.0662026
3134.1	-0.00113773
3135.37	-0.109397
3136.64	-0.00219345
3137.91	-0.124799
3139.18	-0.0724874
3140.45	0.00640249
3141.72	0.232977
3142.99	-0.0782046
3144.26	-0.160468
3145.52	0.146684
3146.79	-0.243355
3148.06	0.13102
3149.33	-0.0303512
