200.43	0.358855
202.244	0.401011
204.059	0.44425
205.873	-0.0224361
207.688	0.459541
209.501	0.891597
211.314	0.423013
213.127	-0.289543
214.941	-0.15366
216.753	-0.0189466
218.564	0.672402
220.375	-0.064724
222.186	0.530244
223.999	-0.131777
225.809	0.657161
227.618	0.406551
229.428	0.300361
231.236	-0.120366
233.045	-0.0588236
234.855	0.943244
236.663	-0.296033
238.471	0.274915
240.278	-0.188065
242.085	-0.287323
243.891	-0.506049
245.698	-0.242576
247.503	0.308936
249.309	0.495275
251.116	0.170844
252.921	0.422437
254.725	0.743947
256.529	0.316986
258.333	-0.157066
260.136	0.479028
261.939	-0.063529
263.742	-0.0744467
265.544	-0.180786
267.346	0.170918
269.148	0.85971
270.949	-0.0677109
272.75	0.015873
274.55	-0.722008
276.351	0.298104
278.15	0.279271
279.95	1.07693
281.749	0.547289
283.548	0.136391
285.346	-0.0833206
287.144	-0.0156059
288.942	-0.235942
290.739	0.0957155
292.536	-0.0985355
294.333	0.498369
296.129	0.163677
297.925	0.690697
299.721	-0.263516
301.514	0.382774
303.309	0.550064
305.104	-0.572987
306.898	0.331339
308.692	0.328402
310.486	0.111477
312.279	0.562737
314.072	0.30107
315.862	0.303245
317.654	0.0929327
319.446	0.217553
321.238	0.0335569
323.029	0.493944
324.819	0.597293
326.608	0.0799265
328.398	0.469444
330.188	0.667328
331.977	0.409543
333.766	0.173473
335.553	0.700603
337.341	0.339771
339.129	0.00055027
340.917	0.592402
342.704	0.393902
344.489	0.553765
346.275	0.0212812
348.062	0.34937
349.845	0.415116
351.631	0.695601
353.416	-0.122394
355.201	0.251583
356.984	0.432991
358.768	0.136078
360.552	0.12396
362.333	0.777053
364.116	0.167997
365.899	0.509368
367.68	0.279524
369.462	0.191375
371.243	-0.087101
373.023	0.462282
374.804	0.797223
376.585	0.446818
378.363	0.191972
380.143	-0.202821
381.923	-0.148585
383.7	-0.069684
385.479	0.127919
387.256	0.326528
389.034	-0.0846395
390.812	0.0220337
392.588	-0.316768
394.365	0.613161
396.14	0.557067
397.916	0.454059
399.691	0.703074
401.467	0.223451
403.24	0.0484123
405.015	0.765017
406.788	0.447323
408.563	0.246415
410.335	-0.119164
412.109	0.289824
413.88	0.276663
415.654	1.03849
417.424	0.745249
419.197	1.08624
420.967	1.35715
422.739	0.242866
424.508	0.465664
426.279	0.21793
428.048	0.556129
429.819	0.283406
431.587	-0.0597858
433.356	0.465703
435.124	-0.111593
436.891	0.461047
438.66	0.32884
440.426	0.312414
442.194	-0.0110874
443.96	0.249507
445.725	0.414041
447.492	0.132252
449.257	0.551923
451.021	0.526987
452.787	0.665809
454.551	0.454741
456.314	0.430408
458.079	-0.153008
459.842	0.800344
461.604	0.125188
463.368	0.498288
465.13	-0.171993
466.891	0.345761
468.654	0.308707
470.415	0.227075
472.175	0.308876
473.935	0.459826
475.696	0.655602
477.456	0.872376
479.215	0.481417
480.973	0.694971
482.733	0.0934362
484.491	0.168505
486.249	0.525109
488.006	0.860933
489.765	0.103179
491.522	0.675893
493.278	0.502635
495.034	0.937304
496.789	0.857693
498.544	0.660438
500.301	1.2362
502.056	0.497849
503.81	0.837806
505.564	0.307338
507.317	0.762449
509.071	0.886927
510.825	0.233222
512.578	0.848337
514.33	0.567657
516.082	-0.0202532
517.833	0.73137
519.585	1.01117
521.335	1.17239
523.086	1.21544
524.836	0.389753
526.586	0.902046
528.335	0.475947
530.085	0.612591
531.835	0.912591
533.584	1.0241
535.332	0.362271
537.08	0.377742
538.827	0.555117
540.574	0.800789
542.321	0.346212
544.068	1.12531
545.814	0.763877
547.56	0.728415
549.305	1.34239
551.05	0.727939
552.795	0.647048
554.54	0.843805
556.282	0.486462
558.025	0.38388
559.769	0.627593
561.512	0.871469
563.255	0.494537
564.997	0.670433
566.739	0.685986
568.481	0.128428
570.223	0.903481
571.964	0.67006
573.705	0.186176
575.443	0.346477
577.183	0.646268
578.923	0.35084
580.663	0.676086
582.402	0.174541
584.141	0.269694
585.879	0.43286
587.615	0.295743
589.353	0.916528
591.09	0.270936
592.828	0.775136
594.564	0.818989
596.299	-0.264457
598.035	0.193528
599.771	0.168003
601.506	0.164633
603.242	-0.322993
604.974	0.0388517
606.709	0.00840092
608.443	-0.229543
610.177	-0.191967
611.908	0.465349
613.642	0.274512
615.374	0.405406
617.105	1.06335
618.837	0.758384
620.569	0.292288
622.3	0.6032
624.03	-0.0930662
625.761	0.719282
627.491	0.572826
629.219	0.405781
630.949	0.150013
632.677	0.558147
634.406	0.168723
636.135	1.01154
637.861	0.871063
639.59	0.887431
641.318	0.695255
643.043	0.318379
644.77	0.236781
646.495	0.0418797
648.222	0.826582
649.948	0.545848
651.672	0.746463
653.398	0.587668
655.121	1.04645
656.846	0.779969
658.569	-0.147014
660.293	0.56654
662.015	0.480497
663.738	0.62045
665.46	1.12377
667.183	0.824889
668.903	0.75375
670.626	0.317249
672.346	0.866538
674.067	1.12135
675.787	0.622563
677.508	0.560134
679.226	0.796332
680.947	0.595185
682.665	0.713909
684.385	0.646362
686.102	0.369367
687.821	0.896693
689.538	0.478577
691.254	0.888899
692.972	0.976048
694.688	1.08541
696.406	1.88447
698.121	1.3926
699.835	1.35988
701.552	1.25688
703.266	0.693271
704.98	1.57659
706.695	0.736753
708.409	0.998504
710.121	1.14484
711.836	1.65681
713.548	0.726522
715.26	1.16883
716.973	-0.033638
718.685	1.59477
720.396	0.986926
722.108	1.47334
723.818	1.45844
725.528	1.26158
727.238	1.47357
728.949	0.981225
730.658	1.10144
732.367	1.58337
734.075	0.616096
735.785	1.21036
737.493	1.01352
739.2	1.49457
740.907	1.7279
742.614	0.993608
744.322	1.90514
746.028	1.62469
747.734	1.50347
749.439	1.47376
751.144	1.40049
752.849	1.73352
754.555	1.77569
756.26	1.54949
757.963	1.77513
759.667	1.59709
761.37	2.25427
763.073	1.37877
764.775	1.42745
766.477	1.88171
768.179	1.90495
769.883	1.88056
771.584	2.0574
773.285	1.91604
774.986	2.13592
776.686	1.85893
778.386	1.67378
780.085	2.80198
781.785	1.9865
783.484	2.23434
785.182	2.61692
786.881	2.06878
788.579	2.17359
790.276	1.68652
791.974	1.96557
793.671	1.74555
795.367	2.69862
797.064	1.98314
798.76	1.72105
800.456	1.91142
802.151	1.92319
803.846	1.82327
805.541	1.97056
807.234	2.02696
808.928	2.26165
810.622	2.04588
812.315	1.87422
814.008	2.12789
815.701	2.11221
817.394	2.2978
819.086	2.55019
820.778	2.37807
822.468	2.31822
824.159	2.01406
825.85	2.51403
827.541	2.05813
829.231	1.93956
830.921	2.73747
832.609	1.73439
834.298	2.51604
835.987	1.93918
837.676	1.74085
839.364	2.03231
841.051	1.7415
842.738	2.07465
844.426	1.82634
846.113	2.09271
847.798	2.24938
849.484	1.33499
851.171	2.03414
852.857	2.7143
854.54	1.8263
856.226	2.0369
857.911	1.86448
859.593	1.59992
861.278	1.87341
862.961	1.78496
864.645	1.35695
866.327	1.91956
868.01	1.60233
869.692	1.14914
871.373	1.93609
873.055	1.21149
874.735	1.27632
876.416	1.97304
878.097	1.56403
879.776	1.80942
881.457	1.53523
883.135	1.35053
884.815	1.54843
886.495	1.36107
888.172	1.05934
889.851	1.27484
891.528	1.93925
893.206	1.7905
894.882	0.98815
896.56	1.46744
898.237	1.69764
899.912	1.23095
901.589	1.5262
903.263	0.790784
904.94	1.68841
906.614	1.26713
908.289	0.869795
909.962	1.72138
911.635	1.72677
913.31	1.37729
914.982	1.13992
916.656	1.50196
918.328	1.3757
920.001	0.91764
921.672	0.991917
923.345	1.9293
925.015	1.25458
926.685	2.15024
928.357	1.21512
930.026	1.51762
931.698	1.53394
933.366	1.66087
935.035	1.6556
936.705	1.62874
938.373	1.29406
940.041	1.97524
941.71	1.55497
943.377	1.73112
945.044	1.62029
946.712	0.581052
948.378	1.57062
950.044	1.60886
951.709	1.22651
953.376	1.6825
955.041	0.949216
956.706	1.21124
958.372	0.859179
960.036	1.17191
961.699	1.42049
963.362	1.33777
965.027	1.54067
966.69	1.54166
968.352	1.05276
970.014	1.64564
971.676	1.33043
973.339	0.661953
975	0.149895
976.661	1.01081
978.322	1.49757
979.982	1.01172
981.642	0.525182
983.303	1.05542
984.962	1.47295
986.621	1.26835
988.28	1.1725
989.938	1.82718
991.596	1.39748
993.254	0.526321
994.911	1.46635
996.57	1.50088
998.227	1.20462
999.884	2.20856
1001.54	2.59418
1003.2	2.4946
1004.85	1.60307
1006.51	1.6576
1008.16	0.658115
1009.82	1.59146
1011.47	0.879301
1013.12	1.28626
1014.78	0.860829
1016.43	1.13683
1018.08	1.01925
1019.74	1.2307
1021.39	1.09331
1023.04	0.694919
1024.69	0.10102
1026.34	1.10308
1028	1.27466
1029.65	1.44551
1031.3	1.26548
1032.95	0.647206
1034.6	0.922332
1036.25	1.15198
1037.9	0.7486
1039.54	0.258672
1041.19	0.335681
1042.84	0.718228
1044.49	1.38465
1046.14	0.879826
1047.78	-0.0570793
1049.43	0.614879
1051.08	1.39687
1052.72	0.746211
1054.37	0.226058
1056.02	0.488121
1057.66	0.380438
1059.31	1.01145
1060.95	0.641685
1062.6	0.445006
1064.24	0.877926
1065.88	0.72265
1067.53	0.870539
1069.17	1.16934
1070.81	0.294492
1072.45	0.462173
1074.1	0.28303
1075.74	0.278587
1077.38	0.492382
1079.02	1.0327
1080.66	0.619698
1082.3	0.922295
1083.94	0.85533
1085.58	0.808326
1087.22	1.27916
1088.86	0.96765
1090.5	0.806086
1092.14	0.167922
1093.78	0.329463
1095.42	0.98708
1097.05	0.803699
1098.69	0.255882
1100.33	0.679337
1101.96	0.243682
1103.6	0.627648
1105.24	1.07741
1106.87	0.667416
1108.51	0.472257
1110.14	0.297537
1111.78	0.271738
1113.41	0.75983
1115.05	0.752225
1116.68	0.78687
1118.31	0.478552
1119.95	1.24256
1121.58	0.614974
1123.21	0.438618
1124.85	-0.14306
1126.48	1.03042
1128.11	0.557573
1129.74	1.11196
1131.37	0.469633
1133	0.255291
1134.63	0.682124
1136.26	0.659364
1137.89	0.55002
1139.52	0.546259
1141.15	-0.184477
1142.78	0.557336
1144.41	0.0188437
1146.04	-0.0920773
1147.66	0.0324841
1149.29	-0.0764923
1150.92	-0.206207
1152.55	-0.33584
1154.17	0.534855
1155.8	0.787411
1157.43	0.146077
1159.05	0.377554
1160.68	0.673595
1162.3	0.715595
1163.93	0.248418
1165.55	0.398392
1167.17	0.356758
1168.8	0.441586
1170.42	0.545852
1172.05	0.116842
1173.67	0.0261469
1175.29	-0.532461
1176.91	0.329578
1178.54	0.300792
1180.16	0.674958
1181.78	-0.0715609
1183.4	-0.0553846
1185.02	0.15099
1186.64	0.208357
1188.26	-0.305711
1189.88	-0.293874
1191.5	0.600234
1193.12	0.523311
1194.74	0.571641
1196.36	0.473099
1197.97	0.522363
1199.59	1.11712
1201.21	0.564101
1202.83	1.35115
1204.44	1.07593
1206.06	1.01197
1207.68	0.365411
1209.29	0.324262
1210.91	0.991408
1212.52	0.322012
1214.14	1.00532
1215.75	1.64359
1217.37	0.884891
1218.98	1.06166
1220.59	1.03032
1222.21	1.14496
1223.82	1.40581
1225.43	1.70939
1227.05	1.6005
1228.66	1.78293
1230.27	1.92534
1231.88	1.15959
1233.49	1.44955
1235.1	1.80289
1236.72	1.76496
1238.33	1.87293
1239.94	2.37465
1241.55	1.71858
1243.16	1.22733
1244.76	1.58339
1246.37	1.35899
1247.98	1.40244
1249.59	1.4864
1251.2	1.56998
1252.8	1.71583
1254.41	2.09
1256.02	1.576
1257.62	2.03564
1259.23	1.73121
1260.84	1.32414
1262.44	1.08299
1264.05	1.56674
1265.66	1.5945
1267.26	1.93238
1268.86	1.46077
1270.47	1.87943
1272.07	2.11031
1273.67	1.59359
1275.28	1.44899
1276.88	1.40703
1278.48	1.57132
1280.09	1.56913
1281.69	1.5666
1283.29	1.33662
1284.89	1.5417
1286.49	1.87167
1288.09	1.80998
1289.69	1.64605
1291.29	1.33811
1292.89	2.31116
1294.49	1.63046
1296.09	1.81602
1297.69	1.58674
1299.29	2.16043
1300.89	2.54604
1302.49	2.12618
1304.08	2.30274
1305.68	1.79964
1307.28	2.98104
1308.88	1.98495
1310.47	2.34353
1312.07	1.6987
1313.66	1.83318
1315.26	1.86637
1316.85	1.77812
1318.45	2.0171
1320.04	2.62257
1321.64	2.30936
1323.23	2.01527
1324.83	2.10597
1326.42	2.43842
1328.01	2.08
1329.61	2.87725
1331.2	1.73296
1332.79	2.10899
1334.38	2.40627
1335.97	2.05942
1337.56	2.76239
1339.16	2.61723
1340.75	2.47027
1342.34	2.16001
1343.93	1.92847
1345.52	2.67986
1347.11	2.18634
1348.7	1.8762
1350.29	2.45006
1351.87	1.88614
1353.46	1.38517
1355.05	1.60559
1356.64	1.36675
1358.22	1.48716
1359.81	1.48663
1361.4	1.62461
1362.98	1.54206
1364.57	2.15695
1366.16	1.73534
1367.74	1.55407
1369.33	1.79237
1370.91	1.55454
1372.5	1.29848
1374.08	1.44168
1375.67	1.60556
1377.25	1.09302
1378.83	1.31619
1380.41	1.83669
1382	1.22165
1383.58	0.883911
1385.16	1.02241
1386.74	0.802668
1388.33	1.15917
1389.91	1.23818
1391.49	1.11972
1393.07	1.77588
1394.65	1.32153
1396.23	1.06549
1397.81	1.40351
1399.39	1.12593
1400.97	0.629684
1402.55	0.865717
1404.13	0.745354
1405.7	0.684986
1407.28	1.09995
1408.86	1.397
1410.44	1.02287
1412.01	1.45855
1413.59	1.34059
1415.17	0.827109
1416.74	1.04287
1418.32	0.804653
1419.89	1.07921
1421.47	0.823011
1423.04	1.84819
1424.62	1.41837
1426.19	0.871973
1427.77	0.995376
1429.34	1.43345
1430.91	1.73274
1432.49	1.5387
1434.06	1.83548
1435.63	1.5809
1437.2	2.27041
1438.78	2.31177
1440.35	2.45258
1441.92	2.7714
1443.49	2.36392
1445.06	3.52924
1446.63	2.808
1448.2	2.69622
1449.77	2.80102
1451.34	3.24069
1452.91	2.99287
1454.48	2.86344
1456.05	2.30107
1457.62	2.66267
1459.18	2.33403
1460.75	3.00701
1462.32	2.26094
1463.89	2.45739
1465.45	2.29855
1467.02	1.86443
1468.59	1.80421
1470.15	1.21521
1471.72	1.92267
1473.28	1.55226
1474.85	0.810317
1476.41	0.990576
1477.98	1.24934
1479.54	0.821916
1481.1	1.04128
1482.67	0.535424
1484.23	0.656593
1485.79	0.24843
1487.36	0.760187
1488.92	0.545877
1490.48	1.21035
1492.04	0.248782
1493.61	0.126562
1495.17	0.822187
1496.73	0.0536003
1498.29	0.746189
1499.85	0.582451
1501.41	0.808495
1502.97	0.705662
1504.53	0.235868
1506.09	0.580258
1507.65	0.575268
1509.2	0.279447
1510.76	0.94789
1512.32	0.476741
1513.88	0.0063858
1515.43	0.613837
1516.99	0.375684
1518.55	0.675841
1520.1	0.516273
1521.66	0.586906
1523.22	0.504148
1524.77	0.0771322
1526.33	1.23272
1527.88	0.860948
1529.44	0.907902
1530.99	0.612935
1532.54	0.357251
1534.1	1.03107
1535.65	1.60982
1537.21	0.450104
1538.76	0.539319
1540.31	0.855054
1541.86	1.01959
1543.42	1.14608
1544.97	0.91487
1546.52	0.75904
1548.07	1.03491
1549.62	1.25394
1551.17	1.11697
1552.72	0.999539
1554.27	1.1637
1555.82	1.59058
1557.37	1.73892
1558.92	1.12437
1560.47	1.31444
1562.02	1.48759
1563.56	0.990405
1565.11	1.51999
1566.66	1.47133
1568.21	1.47842
1569.75	1.63441
1571.3	2.21934
1572.85	1.5906
1574.39	2.00707
1575.94	1.49019
1577.49	1.66425
1579.03	2.28686
1580.57	1.50992
1582.12	2.22767
1583.66	1.88192
1585.21	2.07877
1586.75	1.86504
1588.3	1.65129
1589.84	1.53071
1591.38	1.447
1592.92	2.18661
1594.47	1.61521
1596.01	2.39251
1597.55	2.08372
1599.09	2.26298
1600.63	2.31189
1602.17	2.1925
1603.71	2.29831
1605.25	1.99016
1606.79	2.09368
1608.33	1.95071
1609.87	1.76755
1611.41	2.03281
1612.95	1.90124
1614.49	2.06863
1616.03	1.48506
1617.57	1.76496
1619.1	1.74608
1620.64	1.97235
1622.18	1.93792
1623.72	1.36154
1625.25	1.66516
1626.79	1.33156
1628.32	2.00704
1629.86	2.02591
1631.39	1.23992
1632.93	2.00469
1634.46	1.83552
1636	1.87266
1637.53	1.89216
1639.07	2.06151
1640.6	1.63443
1642.13	2.17574
1643.67	2.00777
1645.2	1.89446
1646.73	1.53854
1648.26	2.44633
1649.8	1.66352
1651.33	2.7756
1652.86	2.29284
1654.39	2.18261
1655.92	2.18442
1657.45	2.33441
1658.98	1.76109
1660.51	2.90848
1662.04	3.0168
1663.57	2.31022
1665.1	2.78618
1666.63	2.89267
1668.16	3.29537
1669.68	1.9299
1671.21	2.66786
1672.74	2.39355
1674.27	1.84371
1675.79	1.93828
1677.32	1.82948
1678.85	2.0323
1680.37	1.42476
1681.9	2.30542
1683.42	1.86248
1684.95	1.60369
1686.47	1.27226
1688	1.72982
1689.52	0.85006
1691.05	1.32638
1692.57	1.03369
1694.09	1.07048
1695.62	0.576882
1697.14	1.01542
1698.66	0.613084
1700.18	0.849545
1701.71	0.720406
1703.23	0.262817
1704.75	0.588404
1706.27	0.749244
1707.79	0.327771
1709.31	0.578994
1710.83	0.684678
1712.35	0.862901
1713.87	0.53371
1715.39	0.440463
1716.91	0.672894
1718.43	0.145744
1719.95	0.269482
1721.47	0.591651
1722.99	0.246811
1724.5	0.912407
1726.02	0.516162
1727.54	-0.112355
1729.06	0.034296
1730.57	0.250298
1732.09	0.317827
1733.61	-0.176204
1735.12	0.28812
1736.64	0.636159
1738.15	0.0289183
1739.67	0.354949
1741.18	0.402613
1742.7	0.24898
1744.21	0.205404
1745.72	-0.373034
1747.24	0.321345
1748.75	0.307743
1750.26	0.25567
1751.77	0.122422
1753.29	0.38541
1754.8	-0.109744
1756.31	0.204074
1757.82	0.047699
1759.33	0.288284
1760.84	-0.0602198
1762.36	-0.105361
1763.87	-0.0820704
1765.38	0.381661
1766.89	0.154511
1768.4	0.137604
1769.91	0.568867
1771.41	-0.229705
1772.92	0.096344
1774.43	0.341984
1775.94	0.000353813
1777.45	0.0503578
1778.95	0.503013
1780.46	0.278637
1781.97	-0.0307655
1783.48	0.00130367
1784.98	0.133039
1786.49	0.195323
1787.99	0.0719366
1789.5	0.0920992
1791.01	-0.107819
1792.51	-0.068058
1794.01	-0.0560627
1795.52	0.00552368
1797.02	0.0419645
1798.53	0.245308
1800.03	0.108188
1801.53	0.00495911
1803.04	0.100511
1804.54	0.0477276
1806.04	0.0631514
1807.54	0.255807
1809.05	0.396749
1810.55	0.209913
1812.05	-0.0234394
1813.55	0.305632
1815.05	-0.169271
1816.55	-0.163031
1818.05	0.00914764
1819.55	0.0689487
1821.05	0.107247
1822.55	0.174122
1824.05	0.020009
1825.55	0.0686455
1827.05	0.209099
1828.55	0.141403
1830.04	-0.328619
1831.54	0.17265
1833.04	0.185775
1834.54	0.0760202
1836.03	0.017602
1837.53	0.22874
1839.03	0.015583
1840.52	0.0729027
1842.02	-0.00929928
1843.51	-0.221323
1845.01	-0.0247955
1846.5	0.310719
1848	0.0737314
1849.49	0.0355206
1850.99	0.31734
1852.48	-0.121396
1853.97	-0.0816832
1855.47	-0.102419
1856.96	-0.189011
1858.45	0.146944
1859.94	-0.0289545
1861.44	0.11243
1862.93	0.01369
1864.42	-0.320615
1865.91	0.0917521
1867.4	0.000304222
1868.89	-0.114627
1870.38	0.064743
1871.87	-0.0973091
1873.36	0.0837851
1874.85	0.249898
1876.34	0.22617
1877.83	0.13194
1879.32	-0.00847912
1880.81	0.0945787
1882.3	-0.176549
1882.57	-0.246819
1884.07	-0.471888
1885.56	-0.174766
1887.06	-0.401242
1888.55	0.190203
1890.04	0.224485
1891.54	0.224951
1893.03	0.192241
1894.52	0.196102
1896.02	0.201469
1897.51	0.485896
1899	0.596337
1900.49	0.583956
1901.98	0.0828209
1903.47	-0.159002
1904.96	0.189009
1906.45	0.310064
1907.94	0.326792
1909.43	0.187905
1910.92	1.00436
1912.41	0.728427
1913.9	0.262409
1915.39	0.056736
1916.88	0.180202
1918.37	0.233745
1919.85	-0.00773525
1921.34	0.339763
1922.83	0.306519
1924.32	0.135668
1925.8	0.121764
1927.29	0.0742569
1928.78	-0.00728893
1930.26	-0.0889235
1931.75	0.365469
1933.23	0.420103
1934.72	0.0748119
1936.2	-0.0469046
1937.69	0.210766
1939.17	-0.569012
1940.66	-0.0697412
1942.14	0.0500832
1943.63	0.188046
1945.11	-0.0181532
1946.59	0.293278
1948.07	0.259591
1949.56	0.190728
1951.04	-0.309487
1952.52	0.583742
1954	0.0308647
1955.48	-0.0573854
1956.96	0.404359
1958.45	-0.0948629
1959.93	0.281977
1961.41	0.14459
1962.89	0.0417709
1964.37	0.0416346
1965.85	-0.0446253
1967.32	-0.199918
1968.8	0.482453
1970.28	0.428363
1971.76	0.186198
1973.24	0.217403
1974.72	0.214543
1976.19	0.262986
1977.67	0.362616
1979.15	0.155823
1980.63	-0.101766
1982.1	0.33773
1983.58	0.232762
1985.05	-0.00817871
1986.53	0.158037
1988	0.188406
1989.48	0.828645
1990.95	0.402573
1992.43	0.366951
1993.9	0.281631
1995.38	0.230966
1996.85	0.484819
1998.32	0.0966997
1999.8	0.366804
2001.27	0.34921
2002.74	0.179339
2004.22	0.515234
2005.69	-0.00819302
2007.16	-0.463099
2008.63	0.413374
2010.1	0.566359
2011.57	0.366306
2013.04	0.486117
2014.51	0.218395
2015.98	0.387437
2017.45	0.656374
2018.92	0.604848
2020.39	0.183176
2021.86	0.399934
2023.33	0.650369
2024.8	0.716825
2026.27	-0.0374746
2027.74	0.300026
2029.2	0.840224
2030.67	0.610208
2032.14	0.683085
2033.61	0.454297
2035.07	0.594751
2036.54	0.550109
2038.01	0.538494
2039.47	0.509659
2040.94	0.463945
2042.4	0.199989
2043.87	0.558943
2045.33	0.447886
2046.8	0.421633
2048.26	0.395618
2049.72	0.706294
2051.19	0.594678
2052.65	0.498272
2054.12	0.315709
2055.58	0.401268
2057.04	0.0134516
2058.5	0.686743
2059.97	0.483478
2061.43	0.297611
2062.89	0.735447
2064.35	0.416752
2065.81	0.654435
2067.27	0.455377
2068.73	0.862758
2070.19	0.479365
2071.65	0.701991
2073.11	0.722457
2074.57	0.607929
2076.03	0.0383539
2077.49	0.327241
2078.95	0.68308
2080.41	0.331188
2081.87	0.349213
2083.32	0.33291
2084.78	0.181266
2086.24	0.584116
2087.7	0.565673
2089.15	0.630852
2090.61	0.443798
2092.07	0.676551
2093.52	0.506248
2094.98	0.956338
2096.43	0.299245
2097.89	0.563493
2099.34	0.860214
2100.8	0.336772
2102.25	0.399182
2103.71	0.462295
2105.16	0.626698
2106.61	0.458628
2108.07	0.675251
2109.52	0.525213
2110.97	0.491381
2112.43	0.622898
2113.88	0.402906
2115.33	0.49784
2116.78	0.957479
2118.23	0.386864
2119.68	0.399329
2121.13	0.612671
2122.59	0.578925
2124.04	0.546564
2125.49	0.53137
2126.94	0.615362
2128.39	0.250776
2129.83	0.846164
2131.28	0.826969
2132.73	0.558729
2134.18	0.820137
2135.63	0.933231
2137.08	0.750172
2138.53	1.13087
2139.97	0.753179
2141.42	0.972044
2142.87	1.05988
2144.31	0.834066
2145.76	0.922626
2147.21	0.696352
2148.65	0.966163
2150.1	0.572587
2151.54	1.58626
2152.99	0.859273
2154.43	0.860511
2155.88	1.1098
2157.32	1.04437
2158.77	1.04592
2160.21	0.916224
2161.65	1.13616
2163.1	0.860666
2164.54	1.1172
2165.98	0.860182
2167.43	1.36694
2168.87	1.27476
2170.31	1.64638
2171.75	1.25081
2173.19	1.08609
2174.64	1.46896
2176.07	0.886576
2177.52	1.06945
2178.96	1.35276
2180.4	0.888857
2181.84	1.30697
2183.28	0.844364
2184.72	1.77901
2186.15	0.734364
2187.59	1.41981
2189.03	0.973852
2190.47	1.37661
2191.91	1.51285
2193.35	1.19878
2194.78	1.24962
2196.22	1.18209
2197.66	1.02943
2199.09	1.32416
2200.53	1.21869
2201.97	1.14644
2203.4	0.792924
2204.84	0.789082
2206.27	0.918797
2207.71	0.94948
2209.14	0.897122
2210.58	0.64542
2212.01	0.905774
2213.45	1.1981
2214.88	1.15955
2216.31	0.428406
2217.75	0.853982
2219.18	0.554761
2220.61	0.157619
2222.05	0.172814
2223.48	0.82983
2224.91	0.826225
2226.34	0.788017
2227.78	0.583837
2229.21	0.986448
2230.64	0.419556
2232.07	1.01712
2233.5	0.566095
2234.93	0.86887
2236.36	0.535116
2237.79	0.0727968
2239.22	0.559101
2240.65	0.688059
2242.08	0.443573
2243.5	0.379656
2244.93	0.201849
2246.36	0.447473
2247.79	0.446892
2249.22	0.395332
2250.64	0.586076
2252.07	0.839927
2253.5	0.702236
2254.92	0.548862
2256.35	0.299732
2257.78	0.507459
2259.2	0.0526171
2260.63	0.492841
2262.05	0.594731
2263.48	0.779431
2264.9	1.0296
2266.33	0.710544
2267.75	0.731981
2269.18	0.719957
2270.6	0.283879
2272.02	0.303014
2273.45	0.321987
2274.87	-0.0499239
2276.29	0.278808
2277.71	0.330785
2279.14	0.888216
2280.56	0.565289
2281.98	0.470416
2283.4	0.718013
2284.82	0.786251
2286.24	0.675178
2287.66	0.792985
2289.08	0.894961
2290.5	0.523535
2291.92	0.773258
2293.34	0.630794
2294.76	0.569971
2296.18	0.689057
2297.6	0.546165
2299.02	0.51787
2300.44	0.555283
2301.86	0.330629
2303.27	0.532575
2304.69	0.357323
2306.11	0.460994
2307.53	0.350808
2308.94	0.486564
2310.36	0.375175
2311.78	0.57586
2313.19	0.480457
2314.61	0.418303
2316.02	0.537936
2317.44	0.246543
2318.85	0.614631
2320.27	0.537525
2321.68	0.277725
2323.1	-0.0500669
2324.51	0.593631
2325.92	0.706937
2327.34	0.785504
2328.75	1.17636
2330.16	0.694023
2331.58	0.328306
2332.99	0.523501
2334.4	0.176419
2335.81	0.668668
2337.23	0.354341
2338.64	0.483129
2340.05	0.413486
2341.46	0.490792
2342.87	0.501856
2344.28	0.0208941
2345.69	0.556912
2347.1	0.273593
2348.51	0.399844
2349.92	0.329244
2351.33	0.797379
2352.74	0.496147
2354.15	0.439264
2355.55	0.528504
2356.96	0.340443
2358.37	0.347905
2359.78	-0.0994473
2361.19	0.346848
2362.59	0.338228
2364	-0.221135
2365.41	0.660445
2366.81	0.344455
2368.22	0.110417
2369.62	0.135865
2371.03	0.323711
2372.44	0.480374
2373.84	0.331899
2375.24	0.296562
2376.65	0.228686
2378.05	0.288459
2379.46	0.330564
2380.86	0.194397
2382.26	0.409909
2383.67	-0.00053978
2385.07	-0.10629
2386.47	0.267855
2387.88	0.354768
2389.28	0.809364
2390.68	0.244879
2392.08	0.71715
2393.48	-0.00349808
2394.89	0.183873
2396.29	0.435344
2397.69	0.146896
2399.09	-0.0614052
2400.49	0.318613
2401.89	0.079339
2403.29	0.491287
2404.69	-0.161115
2406.09	0.535214
2407.48	0.246378
2408.88	0.29008
2410.28	0.349275
2411.68	0.218515
2413.08	-0.291403
2414.48	0.340091
2415.87	0.323736
2417.27	0.261167
2418.67	0.278621
2420.06	0.343925
2421.46	0.345766
2422.86	0.0779238
2424.25	0.126643
2425.65	0.175439
2427.04	0.557589
2428.44	0.544446
2429.83	0.0881586
2431.23	0.663511
2432.62	0.223542
2434.02	0.0843992
2435.41	0.166488
2436.81	0.469625
2438.2	0.215196
2439.59	0.563199
2440.99	0.322565
2442.38	-0.283534
2443.77	0.0467653
2445.16	0.202147
2446.56	0.246267
2447.95	0.306061
2449.34	0.492504
2450.73	-0.0018158
2452.12	0.5652
2453.51	0.420606
2454.9	-0.0078392
2456.29	-0.10333
2457.68	0.24438
2459.07	0.101562
2460.46	-0.0259724
2461.85	0.367521
2463.24	0.4281
2464.63	-0.238696
2466.02	-0.305107
2467.4	0.417707
2468.79	-0.0908585
2470.18	0.268225
2471.57	0.0275316
2472.95	0.337797
2474.34	-0.124451
2475.73	0.215588
2477.12	0.146092
2478.5	-0.457267
2479.89	0.211505
2481.27	-0.0300112
2482.66	0.167451
2484.04	0.207586
2485.43	-0.019083
2486.81	0.222287
2488.2	-0.0840855
2489.58	0.201779
2490.97	0.0354452
2492.35	0.180921
2493.73	0.00104523
2495.12	-0.0685959
2496.5	0.514043
2497.88	0.322229
2499.27	-0.333409
2500.65	0.295295
2502.03	-0.0822773
2503.41	0.203804
2504.79	0.33421
2506.17	0.00151062
2507.56	-0.0382633
2508.94	0.24501
2510.32	0.589525
2511.7	0.27432
2513.08	0.282355
2514.46	0.0614929
2515.84	0.0866842
2517.22	-0.254523
2518.59	0.291879
2519.97	0.226654
2521.35	-0.0373087
2522.73	0.0799732
2524.11	-0.139256
2525.49	-0.0845032
2526.86	0.167879
2528.24	0.039897
2529.62	0.141248
2530.99	0.335233
2532.37	0.24207
2533.75	-0.0168419
2535.12	0.119962
2536.5	-0.00156403
2537.88	0.39276
2539.25	0.269632
2540.63	0.0698519
2542	0.158237
2543.38	0.292382
2544.75	-0.103595
2546.12	-0.0280724
2547.5	0.321664
2548.87	0.156495
2550.24	0.127886
2551.62	0.0987968
2552.99	-0.0677624
2554.36	0.144091
2555.74	0.309504
2557.11	-0.0110464
2558.48	0.0627136
2559.85	-0.3787
2561.22	-0.0464478
2562.59	0.225705
2563.96	-0.168371
2565.34	-0.152866
2566.71	-0.197738
2568.08	0.348538
2569.45	0.440205
2570.82	-0.0137482
2572.18	0.244709
2573.55	0.230439
2574.92	0.23143
2576.29	0.171822
2577.66	0.157621
2579.03	-0.417821
2580.4	0.128466
2581.77	-0.0534525
2583.13	0.0068903
2584.5	0.00637341
2585.87	0.0967712
2587.23	-0.585702
2588.6	0.0203371
2589.97	0.186929
2591.33	-0.0557652
2592.7	-0.010973
2594.06	0.0481815
2595.43	0.212326
2596.79	0.0877533
2598.16	0.370997
2599.52	-0.268663
2600.89	-0.363502
2602.25	-0.140614
2603.62	-0.128622
2604.98	-0.101018
2606.34	-0.0279903
2607.71	-0.000565529
2609.07	-0.215117
2610.43	0.141781
2611.79	0.225998
2613.16	-0.0970249
2614.52	-0.360062
2615.88	0.382559
2617.24	0.149589
2618.6	-0.097291
2619.96	0.22562
2621.32	0.309534
2622.68	-0.158982
2624.04	-0.283209
2625.4	0.0403452
2626.76	0.124633
2628.12	-0.000115395
2629.48	0.0686064
2630.84	0.10728
2632.2	0.086339
2633.56	0.332761
2634.92	-0.089098
2636.28	0.112556
2637.63	0.210161
2638.99	0.233652
2640.35	0.138928
2641.71	0.0741882
2643.06	-0.285623
2644.42	-0.142838
2645.77	0.0291872
2647.13	-0.020545
2648.49	0.282642
2649.84	-0.062974
2651.2	-0.02635
2652.55	0.0393
2653.91	-0.0563087
2655.26	0.0981836
2656.62	-0.0540428
2657.97	0.0877972
2659.33	-0.00370026
2660.68	0.183099
2662.03	-0.0542326
2663.39	0.1609
2664.74	0.0100851
2666.09	-0.0974731
2667.44	-0.0887089
2668.8	0.0219145
2670.15	-0.0128479
2671.5	0.0256701
2672.85	-0.0805264
2674.2	-0.244062
2675.55	-0.131093
2676.91	0.12742
2678.26	0.0238256
2679.61	0.312624
2680.96	0.109462
2682.31	0.139489
2683.66	-0.00330067
2685	0.507515
2686.35	0.206565
2687.7	0.253589
2689.05	-0.0634623
2690.4	0.213038
2691.75	-0.150914
2693.1	0.194835
2694.44	-0.0986633
2695.79	-0.0296698
2697.14	0.40202
2698.49	-0.164475
2699.83	0.414762
2701.18	0.0110703
2702.52	0.231542
2703.87	0.25034
2705.22	0.124696
2706.56	-0.146043
2707.91	0.192202
2709.25	0.109359
2710.6	0.171331
2711.94	0.174996
2713.29	0.13495
2714.63	0.298342
2715.97	0.243682
2717.32	0.305219
2718.66	0.250172
2720.01	0.442119
2721.35	0.502715
2722.69	0.315421
2724.03	0.345977
2725.38	0.143232
2726.72	0.260354
2728.06	0.275291
2729.4	0.420979
2730.74	0.52286
2732.08	0.304638
2733.42	0.275686
2734.76	0.654213
2736.1	0.232957
2737.44	0.422741
2738.78	0.219833
2740.12	0.220309
2741.46	0.48205
2742.8	0.365102
2744.14	0.538182
2745.48	0.405464
2746.82	0.0255795
2748.16	0.400641
2749.49	0.38371
2750.83	0.468537
2752.17	0.162147
2753.51	0.0301294
2754.84	0.101219
2756.18	0.404151
2757.52	0.113437
2758.85	0.18505
2760.19	0.0399389
2761.53	-0.0612173
2762.86	0.0406971
2764.2	0.142915
2765.53	0.259583
2766.87	0.0141153
2768.2	-0.0730572
2769.54	-0.0891013
2770.87	0.168065
2772.2	0.149224
2773.54	-0.260154
2774.87	-0.121503
2776.2	0.232944
2777.54	-0.161171
2778.87	-0.151478
2780.2	0.189219
2781.53	0.11333
2782.87	0.0232916
2784.2	0.191478
2785.53	0.0584707
2786.86	-0.274663
2788.19	0.123131
2789.52	-0.222692
2790.85	-0.181204
2792.18	0.104072
2793.51	0.0751696
2794.84	0.203535
2796.17	-0.0971231
2797.5	-0.212429
2798.83	0.0858994
2800.16	0.112423
2801.49	0.0673542
2802.82	-0.0919089
2804.15	0.0337563
2805.47	-0.0262785
2806.8	0.112448
2808.13	-0.17629
2809.46	0.0182257
2810.78	-0.114114
2812.11	0.194258
2813.44	0.0637236
2814.76	0.175753
2816.09	-0.107745
2817.42	0.148495
2818.74	0.334417
2820.07	0.421132
2821.39	0.379842
2822.72	-0.0163689
2824.04	0.125357
2825.37	0.0967345
2826.69	0.25228
2828.02	0.337492
2829.34	0.593135
2830.66	0.353765
2831.99	0.213717
2833.31	0.512426
2834.63	0.570171
2835.96	0.34438
2837.28	0.500178
2838.6	0.853525
2839.92	0.739821
2841.24	0.767683
2842.57	1.23415
2843.89	0.895562
2845.21	1.99926
2846.53	1.93061
2847.85	1.76341
2849.17	2.33118
2850.49	2.13542
2851.81	2.00979
2853.13	2.35
2854.45	2.33647
2855.77	2.80311
2857.09	2.71868
2858.41	2.4931
2859.72	2.6065
2861.04	2.79028
2862.36	3.07246
2863.68	3.21295
2865	3.69173
2866.31	3.54956
2867.63	3.64752
2868.95	4.25355
2870.26	4.07039
2871.58	4.46539
2872.9	4.21163
2874.21	4.7602
2875.53	4.77193
2876.84	4.61338
2878.16	4.53844
2879.47	4.87111
2880.79	4.92269
2882.1	4.30088
2883.42	4.97285
2884.73	5.12608
2886.05	4.98516
2887.36	5.06892
2888.67	4.63292
2889.99	4.89758
2891.3	4.78246
2892.61	4.86293
2893.92	5.3774
2895.24	5.49981
2896.55	5.48316
2897.86	5.39784
2899.17	5.73353
2900.48	5.37062
2901.79	5.37201
2903.11	5.49953
2904.42	6.06079
2905.73	5.86706
2907.04	5.98173
2908.35	6.16734
2909.66	6.34003
2910.97	6.4575
2912.27	7.02287
2913.58	7.37746
2914.89	6.97424
2916.2	7.19883
2917.51	7.30938
2918.82	7.39063
2920.13	8.14297
2921.43	7.79117
2922.74	7.97232
2924.05	8.44874
2925.35	8.31155
2926.66	8.76222
2927.97	8.75163
2929.27	8.68457
2930.58	8.79849
2931.89	9.54081
2933.19	9.09453
2934.5	8.78804
2935.8	8.9569
2937.11	9.27965
2938.41	9.36502
2939.72	8.5704
2941.02	8.76857
2942.32	8.42287
2943.63	7.855
2944.93	7.66606
2946.24	7.88401
2947.54	7.57118
2948.84	7.15974
2950.14	6.94255
2951.45	6.65304
2952.75	6.71122
2954.05	6.61366
2955.35	6.23571
2956.65	6.55874
2957.95	6.28236
2959.26	6.09312
2960.56	5.79491
2961.86	5.68092
2963.16	6.01653
2964.46	5.43927
2965.76	5.61815
2967.06	6.06227
2968.36	5.88648
2969.66	4.99247
2970.96	5.18089
2972.25	5.1868
2973.55	5.2775
2974.85	4.81918
2976.15	4.96525
2977.45	4.67328
2978.74	4.7594
2980.04	4.59002
2981.34	4.32065
2982.64	4.52901
2983.93	3.89402
2985.23	3.4434
2986.52	3.57075
2987.82	3.12351
2989.12	2.97238
2990.41	3.13063
2991.71	3.33043
2993	2.6155
2994.3	2.40518
2995.59	2.24989
2996.89	2.51507
2998.18	2.42891
2999.48	2.00639
3000.77	2.1736
3002.06	2.27117
3003.36	1.78053
3004.65	2.06067
3005.94	1.64007
3007.23	1.44303
3008.53	1.7349
3009.82	1.10261
3011.11	1.21084
3012.4	1.23464
3013.69	1.04909
3014.99	1.2963
3016.28	1.16769
3017.57	0.858955
3018.86	1.09366
3020.15	0.785725
3021.44	0.755572
3022.73	0.738414
3024.02	1.10875
3025.31	0.90916
3026.6	0.751197
3027.89	0.718482
3029.18	0.424186
3030.46	0.670534
3031.75	0.586564
3033.04	0.724485
3034.33	0.75212
3035.62	0.806661
3036.9	0.694259
3038.19	0.580106
3039.48	0.47794
3040.76	0.608014
3042.05	0.640656
3043.34	0.453795
3044.62	0.336641
3045.91	0.686138
3047.19	0.449682
3048.48	0.66632
3049.77	0.816577
3051.05	0.790882
3052.34	1.02518
3053.62	0.850002
3054.9	0.91963
3056.19	1.0153
3057.47	0.782475
3058.76	1.16203
3060.04	1.07782
3061.32	0.966794
3062.61	1.18321
3063.89	1.00654
3065.17	1.15774
3066.45	1.01122
3067.74	0.743224
3069.02	0.964997
3070.3	1.06401
3071.58	0.740349
3072.86	0.592141
3074.14	0.456208
3075.42	0.917165
3076.7	0.60314
3077.99	0.493342
3079.26	0.0725508
3080.54	0.385843
3081.82	0.51059
3083.1	0.473688
3084.38	0.301641
3085.66	0.129451
3086.94	0.228103
3088.22	0.407363
3089.5	0.124331
3090.78	0.614248
3092.05	-0.0358911
3093.33	0.236577
3094.61	-0.141829
3095.89	0.0494804
3097.16	-0.0304599
3098.44	0.0114026
3099.72	0.229114
3100.99	0.0265474
3102.27	-0.148904
3103.54	0.176785
3104.82	0.299644
3106.1	0.125322
3107.37	0.100658
3108.65	-0.112602
3109.92	0.135194
3111.2	0.0318904
3112.47	-0.0573473
3113.74	-0.0108852
3115.02	-0.0323467
3116.29	-0.0137663
3117.56	0.0851932
3118.84	0.0201645
3120.11	-0.0596757
3121.38	0.0221334
3122.66	-0.00528145
3123.93	0.0482407
3125.2	-0.263847
3126.47	-0.291201
3127.74	0.0741649
3129.01	0.115023
3130.29	0.0208106
3131.56	0.386138
3132.83	0.250926
3134.1	-0.141383
3135.37	-0.129048
3136.64	0.125351
3137.91	0.0551333
3139.18	-0.10985
3140.45	0.0211568
3141.72	-0.291969
3142.99	0.134486
3144.26	0.171174
3145.52	0.100892
3146.79	0.178631
3148.06	-0.0514073
3149.33	0.0940838
