200.43	-0.0269165
202.244	-0.00577927
204.059	0.01618
205.873	-0.00985813
207.688	0.207388
209.501	0.6669
211.314	0.250561
213.127	0.367501
214.941	0.43476
216.753	0.404339
218.564	0.543427
220.375	0.489111
222.186	0.48392
223.999	0.697019
225.809	0.209472
227.618	0.495319
229.428	0.345881
231.236	0.340833
233.045	-0.219418
234.855	0.378455
236.663	0.639321
238.471	0.877661
240.278	0.949372
242.085	-0.206696
243.891	0.422455
245.698	0.23149
247.503	0.0873194
249.309	-0.131598
251.116	0.129821
252.921	-0.142214
254.725	0.428792
256.529	0.179014
258.333	0.677121
260.136	-0.269325
261.939	-0.00950813
263.742	0.299742
265.544	0.706267
267.346	-0.0195236
269.148	0.194178
270.949	0.214353
272.75	0.37819
274.55	0.372025
276.351	0.436763
278.15	0.427571
279.95	0.199883
281.749	0.644656
283.548	0.365635
285.346	0.59039
287.144	0.237943
288.942	0.677373
290.739	0.445799
292.536	-0.0476313
294.333	-0.323887
296.129	0.0467825
297.925	0.513557
299.721	0.335321
301.514	0.419731
303.309	0.837623
305.104	0.418798
306.898	-0.143536
308.692	0.653263
310.486	0.663382
312.279	0.388663
314.072	0.32974
315.862	-0.0134354
317.654	0.216318
319.446	0.352114
321.238	0.679631
323.029	0.316559
324.819	0.979457
326.608	0.59266
328.398	0.420199
330.188	0.390391
331.977	0.26388
333.766	1.16466
335.553	0.652092
337.341	0.807508
339.129	0.243335
340.917	0.15647
342.704	0.427528
344.489	0.148705
346.275	0.563138
348.062	0.882354
349.845	0.509526
351.631	0.590375
353.416	0.408231
355.201	0.129889
356.984	0.422916
358.768	0.0472898
360.552	0.361784
362.333	0.865411
364.116	0.487818
365.899	0.276529
367.68	0.420978
369.462	0.398433
371.243	0.185708
373.023	0.256768
374.804	0.185542
376.585	0.208928
378.363	0.0676012
380.143	0.68111
381.923	0.282382
383.7	0.120524
385.479	0.477081
387.256	0.599327
389.034	0.675461
390.812	0.165241
392.588	0.125504
394.365	0.415049
396.14	0.563994
397.916	0.149386
399.691	0.932442
401.467	0.235445
403.24	0.26604
405.015	0.225574
406.788	0.489768
408.563	0.495114
410.335	0.124602
412.109	0.0358844
413.88	0.276022
415.654	0.469765
417.424	-0.133617
419.197	0.131699
420.967	0.0452313
422.739	0.334144
424.508	0.129558
426.279	0.0416102
428.048	-0.234804
429.819	-0.112513
431.587	-0.483164
433.356	0.272996
435.124	-0.191011
436.891	0.236814
438.66	0.194714
440.426	0.128004
442.194	-0.221735
443.96	0.575887
445.725	0.246471
447.492	-0.0131979
449.257	-0.272791
451.021	0.379312
452.787	0.12016
454.551	0.468081
456.314	0.209473
458.079	-0.0954199
459.842	0.321595
461.604	-0.0520988
463.368	0.389334
465.13	0.158562
466.891	-0.232498
468.654	0.0989513
470.415	-0.335231
472.175	0.0915675
473.935	-0.0637617
475.696	0.315105
477.456	0.249801
479.215	-0.0732632
480.973	0.0454698
482.733	-0.254936
484.491	0.656677
486.249	0.47526
488.006	-0.0308018
489.765	0.14058
491.522	0.149665
493.278	0.416329
495.034	0.566742
496.789	0.366259
498.544	0.352618
500.301	0.0571942
502.056	0.511806
503.81	0.755023
505.564	0.269013
507.317	0.275166
509.071	0.32714
510.825	0.919038
512.578	0.121389
514.33	0.146095
516.082	0.781353
517.833	0.474566
519.585	0.51979
521.335	0.517362
523.086	0.185765
524.836	-0.145644
526.586	0.391263
528.335	0.0601153
530.085	0.291669
531.835	0.592928
533.584	0.565486
535.332	0.396784
537.08	0.60113
538.827	0.290312
540.574	0.329004
542.321	0.553296
544.068	0.451035
545.814	0.0934024
547.56	0.572291
549.305	0.192549
551.05	0.0454211
552.795	0.384525
554.54	0.30716
556.282	0.461025
558.025	0.0845203
559.769	0.239037
561.512	0.186569
563.255	0.111668
564.997	0.290197
566.739	-0.0822725
568.481	0.487611
570.223	-0.64033
571.964	-0.298211
573.705	0.228534
575.443	0.252006
577.183	0.322752
578.923	-0.31699
580.663	-0.152846
582.402	-0.126307
584.141	0.0148182
585.879	-0.00570774
587.615	-0.257254
589.353	0.1574
591.09	0.157242
592.828	0.271702
594.564	-0.189143
596.299	0.339364
598.035	0.223661
599.771	-0.237392
601.506	-0.0778975
603.242	-0.103401
604.974	-0.19896
606.709	1.08322
608.443	-0.0709147
610.177	0.038475
611.908	0.0563636
613.642	-0.0627074
615.374	0.506427
617.105	0.113068
618.837	1.18533
620.569	0.51603
622.3	-0.153535
624.03	0.365845
625.761	0.336223
627.491	0.0335264
629.219	0.326012
630.949	0.414887
632.677	-0.0422101
634.406	0.0948462
636.135	0.00346422
637.861	0.390145
639.59	-0.0469985
641.318	0.220997
643.043	0.646207
644.77	0.500389
646.495	0.104853
648.222	-0.0612912
649.948	0.343197
651.672	0.796063
653.398	0.320453
655.121	0.893402
656.846	0.968396
658.569	0.109853
660.293	0.161917
662.015	-0.0155106
663.738	0.353511
665.46	0.53809
667.183	0.469667
668.903	0.286224
670.626	0.698004
672.346	0.356431
674.067	-0.189662
675.787	-0.345335
677.508	0.142069
679.226	0.35499
680.947	0.0848107
682.665	0.526004
684.385	0.689824
686.102	0.852127
687.821	0.736791
689.538	0.413204
691.254	1.01039
692.972	0.271043
694.688	0.521594
696.406	0.0343938
698.121	1.04287
699.835	0.300726
701.552	0.271326
703.266	1.0916
704.98	0.601046
706.695	1.16646
708.409	0.400608
710.121	0.460549
711.836	1.04664
713.548	0.693656
715.26	0.295434
716.973	0.833979
718.685	0.687303
720.396	0.130779
722.108	0.645615
723.818	1.00036
725.528	1.03614
727.238	1.04891
728.949	0.834372
730.658	1.1413
732.367	1.35671
734.075	1.09639
735.785	1.10785
737.493	0.938946
739.2	1.0642
740.907	1.75359
742.614	0.956289
744.322	0.88153
746.028	0.853012
747.734	0.960627
749.439	0.709396
751.144	0.931573
752.849	1.60468
754.555	0.996789
756.26	1.26749
757.963	1.08939
759.667	1.81347
761.37	0.44276
763.073	1.46212
764.775	1.46671
766.477	0.995883
768.179	1.13341
769.883	1.26925
771.584	1.17732
773.285	1.19726
774.986	1.39768
776.686	1.46283
778.386	1.70995
780.085	2.02629
781.785	2.14019
783.484	2.07327
785.182	2.54862
786.881	1.79954
788.579	2.27001
790.276	2.19428
791.974	1.37036
793.671	1.35937
795.367	1.46093
797.064	1.65318
798.76	1.6438
800.456	2.0186
802.151	1.44936
803.846	1.6458
805.541	1.48229
807.234	2.21703
808.928	1.98431
810.622	2.06503
812.315	1.38238
814.008	1.91022
815.701	1.92206
817.394	2.24699
819.086	1.7892
820.778	2.11387
822.468	1.9921
824.159	1.78198
825.85	1.46191
827.541	1.70075
829.231	2.05308
830.921	2.07395
832.609	2.25326
834.298	2.52379
835.987	1.9926
837.676	1.66147
839.364	1.35135
841.051	1.57576
842.738	1.08422
844.426	2.04455
846.113	1.66474
847.798	1.71099
849.484	1.55797
851.171	1.33963
852.857	1.72765
854.54	0.928036
856.226	1.31709
857.911	1.36878
859.593	1.48669
861.278	1.13041
862.961	0.817449
864.645	1.35958
866.327	0.683958
868.01	0.661376
869.692	1.42779
871.373	1.58516
873.055	1.02045
874.735	1.40318
876.416	1.17671
878.097	0.972739
879.776	1.01693
881.457	1.51232
883.135	1.37505
884.815	1.30459
886.495	1.0073
888.172	0.911959
889.851	0.95073
891.528	1.16856
893.206	1.5201
894.882	0.767532
896.56	1.22935
898.237	0.948354
899.912	1.13827
901.589	1.68552
903.263	1.44777
904.94	1.36686
906.614	0.594388
908.289	1.20648
909.962	1.55066
911.635	1.36093
913.31	1.41661
914.982	0.984007
916.656	1.41738
918.328	1.49529
920.001	1.06385
921.672	1.6955
923.345	1.00075
925.015	1.12564
926.685	1.62722
928.357	1.20281
930.026	0.978256
931.698	1.15148
933.366	0.927782
935.035	1.21159
936.705	0.856068
938.373	1.25111
940.041	0.831069
941.71	1.62519
943.377	0.875671
945.044	0.964379
946.712	0.699028
948.378	0.763319
950.044	1.17918
951.709	0.534809
953.376	1.0377
955.041	0.527225
956.706	0.680454
958.372	0.902433
960.036	0.90613
961.699	1.22033
963.362	1.31386
965.027	1.11859
966.69	0.96519
968.352	0.610313
970.014	0.961725
971.676	0.582356
973.339	1.11015
975	0.798663
976.661	0.599167
978.322	0.843199
979.982	0.84449
981.642	0.845473
983.303	0.646141
984.962	1.02082
986.621	0.796113
988.28	0.946187
989.938	0.453815
991.596	0.35924
993.254	0.132098
994.911	0.258459
996.57	1.46577
998.227	1.01799
999.884	1.82656
1001.54	2.10526
1003.2	1.37085
1004.85	1.29691
1006.51	1.22294
1008.16	0.907598
1009.82	0.658785
1011.47	0.673791
1013.12	0.382298
1014.78	0.376191
1016.43	0.107686
1018.08	0.518126
1019.74	0.644466
1021.39	0.574746
1023.04	0.855655
1024.69	0.569006
1026.34	0.676229
1028	0.564945
1029.65	0.278427
1031.3	0.537101
1032.95	1.29642
1034.6	0.919035
1036.25	0.758994
1037.9	0.0756674
1039.54	0.677607
1041.19	0.691833
1042.84	0.750531
1044.49	0.61501
1046.14	0.611444
1047.78	1.022
1049.43	0.413138
1051.08	0.413336
1052.72	0.0231161
1054.37	0.263163
1056.02	0.242496
1057.66	0.678112
1059.31	0.33076
1060.95	0.178514
1062.6	0.373565
1064.24	0.328706
1065.88	0.826524
1067.53	-0.28506
1069.17	-0.180025
1070.81	-0.292727
1072.45	0.46282
1074.1	0.719025
1075.74	0.758943
1077.38	0.127616
1079.02	0.212997
1080.66	0.0170546
1082.3	0.319848
1083.94	0.253339
1085.58	0.424053
1087.22	0.268044
1088.86	0.327127
1090.5	0.406374
1092.14	0.916855
1093.78	0.173387
1095.42	0.251296
1097.05	-0.230787
1098.69	0.128942
1100.33	0.618661
1101.96	0.0980501
1103.6	0.267534
1105.24	0.567026
1106.87	0.2862
1108.51	0.822396
1110.14	0.540506
1111.78	-0.107857
1113.41	0.274247
1115.05	0.0752878
1116.68	0.412431
1118.31	0.684844
1119.95	0.05762
1121.58	-0.20412
1123.21	0.262867
1124.85	0.687441
1126.48	-0.0639544
1128.11	0.212047
1129.74	0.125009
1131.37	0.423244
1133	0.165845
1134.63	0.122138
1136.26	0.184816
1137.89	0.759467
1139.52	-0.418704
1141.15	0.388865
1142.78	-0.362509
1144.41	0.230618
1146.04	-0.029047
1147.66	0.22367
1149.29	0.136015
1150.92	0.517375
1152.55	-0.293962
1154.17	0.42768
1155.8	0.0631504
1157.43	0.166806
1159.05	0.0579605
1160.68	-0.284112
1162.3	0.352798
1163.93	0.139942
1165.55	-0.0299959
1167.17	-0.455269
1168.8	0.373064
1170.42	-0.117995
1172.05	0.876935
1173.67	-0.0202904
1175.29	0.185943
1176.91	0.0946426
1178.54	-0.0175753
1180.16	0.188398
1181.78	0.289006
1183.4	-0.180809
1185.02	0.0894737
1186.64	-0.528147
1188.26	0.330877
1189.88	-0.22542
1191.5	0.144377
1193.12	0.070529
1194.74	0.0801868
1196.36	0.320445
1197.97	0.477002
1199.59	0.885515
1201.21	0.292218
1202.83	-0.0683403
1204.44	-0.0299959
1206.06	0.865401
1207.68	0.384682
1209.29	0.300645
1210.91	0.945966
1212.52	0.359433
1214.14	0.542643
1215.75	0.411457
1217.37	0.549457
1218.98	0.249931
1220.59	-0.0283356
1222.21	0.586209
1223.82	0.786199
1225.43	0.0553722
1227.05	0.547547
1228.66	0.461189
1230.27	0.479283
1231.88	0.394963
1233.49	0.807656
1235.1	1.07663
1236.72	0.829896
1238.33	0.894038
1239.94	0.772665
1241.55	0.651386
1243.16	0.757356
1244.76	0.862736
1246.37	1.38116
1247.98	0.636474
1249.59	0.698179
1251.2	0.32517
1252.8	0.386789
1254.41	0.676462
1256.02	0.904936
1257.62	0.968962
1259.23	0.992594
1260.84	1.03768
1262.44	0.710464
1264.05	0.85948
1265.66	1.19478
1267.26	0.679793
1268.86	0.972371
1270.47	0.973886
1272.07	1.09892
1273.67	0.849893
1275.28	1.22195
1276.88	1.0128
1278.48	1.17596
1280.09	0.779396
1281.69	1.47983
1283.29	0.607469
1284.89	1.20449
1286.49	1.24366
1288.09	1.49037
1289.69	0.952512
1291.29	0.952452
1292.89	0.642402
1294.49	1.17883
1296.09	0.949803
1297.69	1.38019
1299.29	1.18977
1300.89	0.91584
1302.49	1.48584
1304.08	1.12791
1305.68	0.831719
1307.28	1.41881
1308.88	0.527279
1310.47	1.23612
1312.07	1.57529
1313.66	1.48491
1315.26	1.15035
1316.85	0.837571
1318.45	1.40303
1320.04	0.948205
1321.64	1.59331
1323.23	0.750397
1324.83	0.537962
1326.42	1.44144
1328.01	1.42975
1329.61	1.56027
1331.2	1.32779
1332.79	1.0775
1334.38	0.708337
1335.97	1.32976
1337.56	1.62829
1339.16	1.20028
1340.75	1.21457
1342.34	1.28737
1343.93	1.27793
1345.52	1.04667
1347.11	1.39754
1348.7	0.967876
1350.29	1.02137
1351.87	1.11693
1353.46	1.15418
1355.05	0.892708
1356.64	0.891471
1358.22	0.710104
1359.81	0.807651
1361.4	1.04394
1362.98	0.980042
1364.57	0.716543
1366.16	0.49339
1367.74	0.350758
1369.33	0.428159
1370.91	0.427021
1372.5	0.625958
1374.08	0.885467
1375.67	0.528702
1377.25	0.410786
1378.83	0.332273
1380.41	0.432057
1382	0.948513
1383.58	0.48918
1385.16	0.446811
1386.74	0.741841
1388.33	0.26225
1389.91	0.51802
1391.49	0.536201
1393.07	0.753394
1394.65	0.712973
1396.23	0.196537
1397.81	0.472746
1399.39	0.609257
1400.97	0.0912876
1402.55	0.384955
1404.13	-0.0932884
1405.7	0.378477
1407.28	0.395883
1408.86	0.0780649
1410.44	0.629954
1412.01	0.352138
1413.59	0.666226
1415.17	0.426857
1416.74	0.877253
1418.32	1.05088
1419.89	0.180536
1421.47	0.355436
1423.04	0.354279
1424.62	0.51188
1426.19	0.768894
1427.77	0.731136
1429.34	0.437287
1430.91	0.851287
1432.49	1.20519
1434.06	1.12529
1435.63	1.18271
1437.2	1.0633
1438.78	1.14113
1440.35	1.08221
1441.92	1.39752
1443.49	1.14349
1445.06	1.71526
1446.63	0.813091
1448.2	1.46383
1449.77	1.36789
1451.34	1.8622
1452.91	1.35419
1454.48	1.04298
1456.05	1.18416
1457.62	1.1084
1459.18	1.0906
1460.75	1.79948
1462.32	1.20795
1463.89	1.40201
1465.45	0.769422
1467.02	0.706874
1468.59	0.899903
1470.15	0.543997
1471.72	0.601241
1473.28	0.698542
1474.85	0.365043
1476.41	-0.105268
1477.98	1.0126
1479.54	0.620774
1481.1	0.50336
1482.67	0.385911
1484.23	0.170423
1485.79	0.562029
1487.36	0.110688
1488.92	0.148056
1490.48	0.320921
1492.04	0.394047
1493.61	0.621526
1495.17	0.866528
1496.73	-0.448788
1498.29	0.165548
1499.85	0.312295
1501.41	0.420722
1502.97	-0.400988
1504.53	0.0195746
1506.09	0.0137172
1507.65	0.336152
1509.2	0.251421
1510.76	0.0887527
1512.32	0.388302
1513.88	0.359558
1515.43	0.388689
1516.99	0.610201
1518.55	0.179855
1520.1	0.0574422
1521.66	-0.121938
1523.22	0.386912
1524.77	0.435785
1526.33	-0.0311236
1527.88	0.359333
1529.44	-0.145445
1530.99	-0.0602102
1532.54	0.290628
1534.1	-0.097301
1535.65	0.481179
1537.21	-0.320141
1538.76	0.258626
1540.31	0.42171
1541.86	0.565716
1543.42	0.182408
1544.97	0.532938
1546.52	0.600853
1548.07	0.443333
1549.62	0.585999
1551.17	0.110603
1552.72	1.26402
1554.27	0.0985684
1555.82	0.206062
1557.37	0.688134
1558.92	0.219792
1560.47	0.816584
1562.02	0.91094
1563.56	0.931649
1565.11	0.50506
1566.66	0.507656
1568.21	0.547403
1569.75	0.680175
1571.3	0.215312
1572.85	0.515543
1574.39	0.386318
1575.94	1.09716
1577.49	0.650769
1579.03	0.839441
1580.57	0.636559
1582.12	1.06924
1583.66	0.942415
1585.21	0.236811
1586.75	0.540639
1588.3	0.751326
1589.84	0.6065
1591.38	0.74199
1592.92	1.08316
1594.47	1.23698
1596.01	1.18484
1597.55	0.402057
1599.09	0.669219
1600.63	0.974712
1602.17	0.90554
1603.71	1.06163
1605.25	1.08581
1606.79	0.394723
1608.33	0.547586
1609.87	0.698613
1611.41	1.59923
1612.95	0.938637
1614.49	0.990843
1616.03	0.967572
1617.57	0.86973
1619.1	1.03525
1620.64	1.14573
1622.18	1.05137
1623.72	0.583348
1625.25	0.639621
1626.79	0.770127
1628.32	0.712412
1629.86	0.6162
1631.39	0.874315
1632.93	0.571437
1634.46	1.22117
1636	0.658144
1637.53	1.02889
1639.07	1.23211
1640.6	0.857488
1642.13	0.817974
1643.67	1.57825
1645.2	0.475739
1646.73	1.21488
1648.26	1.15367
1649.8	1.46423
1651.33	0.828829
1652.86	1.12255
1654.39	1.37991
1655.92	1.06309
1657.45	1.46905
1658.98	1.09615
1660.51	0.685463
1662.04	1.80954
1663.57	1.06392
1665.1	1.44567
1666.63	1.45799
1668.16	1.04706
1669.68	1.30148
1671.21	1.17005
1672.74	1.27912
1674.27	0.928182
1675.79	0.485189
1677.32	0.888425
1678.85	0.959306
1680.37	1.02921
1681.9	1.20862
1683.42	0.836626
1684.95	0.593623
1686.47	0.369545
1688	0.695955
1689.52	0.582684
1691.05	0.250026
1692.57	0.155671
1694.09	0.390607
1695.62	0.149835
1697.14	0.402458
1698.66	0.471901
1700.18	0.705155
1701.71	0.281099
1703.23	0.0394168
1704.75	0.2529
1706.27	0.301911
1707.79	0.368772
1709.31	0.235649
1710.83	0.393177
1712.35	0.242334
1713.87	0.146226
1715.39	-0.112602
1716.91	-0.0635552
1718.43	0.220248
1719.95	0.413219
1721.47	0.154944
1722.99	0.149928
1724.5	0.65021
1726.02	0.646819
1727.54	-0.0574284
1729.06	0.48126
1730.57	0.298436
1732.09	0.133737
1733.61	0.340618
1735.12	-0.264637
1736.64	0.418091
1738.15	0.288009
1739.67	0.244827
1741.18	-0.337917
1742.7	-0.0846
1744.21	0.365378
1745.72	0.164809
1747.24	-0.115764
1748.75	0.0968742
1750.26	-0.0544591
1751.77	-0.345342
1753.29	0.432393
1754.8	0.512256
1756.31	-0.305039
1757.82	0.313794
1759.33	0.231299
1760.84	-0.072154
1762.36	0.226027
1763.87	-0.226285
1765.38	0.0544233
1766.89	-0.136265
1768.4	-0.200809
1769.91	-0.287325
1771.41	0.0732417
1772.92	0.116771
1774.43	-0.296509
1775.94	-0.174137
1777.45	0.116977
1778.95	-0.137489
1780.46	0.135438
1781.97	-0.0595975
1783.48	0.106648
1784.98	0.163424
1786.49	0.0572062
1787.99	0.0643234
1789.5	-0.272802
1791.01	-0.135237
1792.51	0.147636
1794.01	-0.150177
1795.52	0.160827
1797.02	-0.153885
1798.53	0.0190048
1800.03	0.0639863
1801.53	-0.0367079
1803.04	0.0734911
1804.54	0.111289
1806.04	0.00873375
1807.54	-0.174276
1809.05	0.118043
1810.55	-0.0496268
1812.05	-0.178914
1813.55	0.261981
1815.05	0.125905
1816.55	-0.178721
1818.05	0.236669
1819.55	0.0422206
1821.05	0.167509
1822.55	0.0170331
1824.05	0.139632
1825.55	0.232725
1827.05	0.163059
1828.55	0.213717
1830.04	0.192536
1831.54	0.151434
1833.04	0.119403
1834.54	-0.0832429
1836.03	0.147548
1837.53	0.37666
1839.03	0.634125
1840.52	0.471457
1842.02	0.0209022
1843.51	0.00774431
1845.01	-0.0315347
1846.5	0.197674
1848	-0.00588703
1849.49	0.19456
1850.99	0.0265388
1852.48	0.306135
1853.97	0.303955
1855.47	0.137575
1856.96	0.288048
1858.45	-0.0677304
1859.94	-0.0310297
1861.44	-0.0307093
1862.93	0.20541
1864.42	-0.00738573
1865.91	0.141312
1867.4	0.288449
1868.89	0.165484
1870.38	0.169219
1871.87	0.22974
1873.36	0.223414
1874.85	0.0849838
1876.34	0.0691218
1877.83	0.263994
1879.32	0.00792265
1880.81	0.385735
1882.3	0.101989
1882.57	0.0153284
1884.07	0.222679
1885.56	0.202666
1887.06	-0.288323
1888.55	0.0911708
1890.04	0.0528865
1891.54	0.189394
1893.03	0.414136
1894.52	0.0492988
1896.02	0.381245
1897.51	0.140084
1899	0.264006
1900.49	0.195703
1901.98	-0.204514
1903.47	0.14177
1904.96	0.173697
1906.45	0.0485706
1907.94	0.2535
1909.43	0.424055
1910.92	0.335037
1912.41	0.541748
1913.9	0.367308
1915.39	-0.448594
1916.88	0.0531397
1918.37	-0.0524411
1919.85	-0.0543685
1921.34	0.0995264
1922.83	0.115162
1924.32	0.304672
1925.8	0.581686
1927.29	0.0979075
1928.78	0.0301247
1930.26	0.291291
1931.75	0.0842152
1933.23	0.516571
1934.72	0.306704
1936.2	0.285864
1937.69	0.00468254
1939.17	0.483728
1940.66	0.254482
1942.14	-0.129062
1943.63	0.264882
1945.11	0.279891
1946.59	0.0710983
1948.07	0.275818
1949.56	0.376373
1951.04	-0.143861
1952.52	0.264888
1954	-0.0323715
1955.48	0.340858
1956.96	0.215953
1958.45	-0.0111818
1959.93	0.225694
1961.41	-0.0515828
1962.89	0.100018
1964.37	0.0799985
1965.85	-0.282925
1967.32	0.329509
1968.8	0.0854411
1970.28	0.251412
1971.76	-0.0442419
1973.24	0.121307
1974.72	0.0990939
1976.19	0.230459
1977.67	0.191465
1979.15	0.101542
1980.63	0.368906
1982.1	-0.146146
1983.58	0.256493
1985.05	-0.224349
1986.53	0.126365
1988	0.171489
1989.48	-0.325062
1990.95	-0.160388
1992.43	0.343117
1993.9	0.441265
1995.38	0.0837817
1996.85	0.0478826
1998.32	0.282168
1999.8	0.448373
2001.27	0.327035
2002.74	-0.0138884
2004.22	0.336582
2005.69	0.316326
2007.16	0.044095
2008.63	0.345358
2010.1	0.209512
2011.57	0.0573211
2013.04	0.359639
2014.51	0.106147
2015.98	0.104453
2017.45	0.202888
2018.92	0.435014
2020.39	0.229587
2021.86	0.259356
2023.33	0.390102
2024.8	0.101981
2026.27	0.200866
2027.74	0.267411
2029.2	0.43589
2030.67	0.437826
2032.14	-0.348126
2033.61	-0.00945711
2035.07	0.0439315
2036.54	0.0802269
2038.01	0.267315
2039.47	0.538182
2040.94	0.271189
2042.4	0.290259
2043.87	0.427744
2045.33	0.280067
2046.8	0.402283
2048.26	0.592268
2049.72	0.225945
2051.19	0.465387
2052.65	0.551802
2054.12	0.181245
2055.58	0.584911
2057.04	-0.0411234
2058.5	0.141451
2059.97	0.306915
2061.43	0.270569
2062.89	0.352781
2064.35	0.604136
2065.81	0.519756
2067.27	0.452953
2068.73	0.302499
2070.19	0.253272
2071.65	0.170406
2073.11	0.137903
2074.57	0.122001
2076.03	0.34157
2077.49	0.628194
2078.95	0.358733
2080.41	0.206766
2081.87	0.189036
2083.32	0.423223
2084.78	0.555668
2086.24	0.401409
2087.7	0.347612
2089.15	-0.00899696
2090.61	0.457623
2092.07	0.185017
2093.52	0.113959
2094.98	0.277527
2096.43	0.256111
2097.89	0.016418
2099.34	0.412497
2100.8	0.188977
2102.25	0.567539
2103.71	0.395266
2105.16	0.307765
2106.61	0.655287
2108.07	0.436436
2109.52	0.134593
2110.97	0.232501
2112.43	0.629122
2113.88	0.291111
2115.33	0.468016
2116.78	0.0620222
2118.23	0.437672
2119.68	0.515148
2121.13	0.39515
2122.59	0.558847
2124.04	0.276011
2125.49	0.773074
2126.94	0.50713
2128.39	0.240375
2129.83	0.337144
2131.28	0.233987
2132.73	0.246145
2134.18	0.374076
2135.63	0.32068
2137.08	0.185937
2138.53	0.713841
2139.97	0.202164
2141.42	0.584352
2142.87	0.174014
2144.31	0.293274
2145.76	0.561691
2147.21	0.647929
2148.65	0.534915
2150.1	0.570181
2151.54	0.670874
2152.99	0.356485
2154.43	0.240241
2155.88	0.637207
2157.32	0.0568333
2158.77	0.967932
2160.21	0.670954
2161.65	0.458225
2163.1	0.744267
2164.54	0.650371
2165.98	0.258196
2167.43	0.712699
2168.87	0.651496
2170.31	0.621953
2171.75	0.390957
2173.19	0.474367
2174.64	0.390289
2176.07	0.671633
2177.52	0.637144
2178.96	0.935833
2180.4	0.786469
2181.84	0.671103
2183.28	0.789022
2184.72	0.624453
2186.15	0.909055
2187.59	0.677964
2189.03	1.11252
2190.47	0.615052
2191.91	0.583327
2193.35	0.617542
2194.78	0.334267
2196.22	0.831861
2197.66	0.428924
2199.09	0.390769
2200.53	0.5844
2201.97	0.744422
2203.4	0.539823
2204.84	0.55197
2206.27	0.747295
2207.71	0.247108
2209.14	0.6248
2210.58	0.753181
2212.01	0.285059
2213.45	0.312796
2214.88	0.224773
2216.31	0.335463
2217.75	0.463484
2219.18	0.575959
2220.61	0.606665
2222.05	0.27486
2223.48	0.42042
2224.91	0.564632
2226.34	0.0983453
2227.78	0.239683
2229.21	0.626002
2230.64	0.518675
2232.07	0.427793
2233.5	0.206425
2234.93	0.558437
2236.36	0.502422
2237.79	0.268318
2239.22	0.362453
2240.65	0.0830755
2242.08	0.604492
2243.5	0.572405
2244.93	0.459051
2246.36	0.377707
2247.79	0.637453
2249.22	0.226736
2250.64	0.645375
2252.07	0.492119
2253.5	0.159548
2254.92	0.461475
2256.35	0.439508
2257.78	0.289857
2259.2	0.321231
2260.63	0.144204
2262.05	0.212617
2263.48	0.379886
2264.9	0.466326
2266.33	0.129755
2267.75	0.329003
2269.18	-0.025723
2270.6	0.465177
2272.02	-0.0373712
2273.45	0.257751
2274.87	-0.0985236
2276.29	0.21326
2277.71	0.16679
2279.14	0.152951
2280.56	0.302118
2281.98	0.157653
2283.4	0.208821
2284.82	0.260053
2286.24	0.213563
2287.66	0.39596
2289.08	0.0888481
2290.5	0.223038
2291.92	0.194104
2293.34	0.361505
2294.76	0.578112
2296.18	0.320133
2297.6	0.111012
2299.02	-0.0490899
2300.44	-0.0780525
2301.86	0.122768
2303.27	0.110749
2304.69	0.0496044
2306.11	-0.126641
2307.53	0.271746
2308.94	0.407
2310.36	-0.0666018
2311.78	0.281612
2313.19	0.169303
2314.61	0.534619
2316.02	0.341012
2317.44	0.263238
2318.85	0.383581
2320.27	0.206938
2321.68	0.425164
2323.1	0.27873
2324.51	0.592311
2325.92	0.392289
2327.34	0.98245
2328.75	1.19223
2330.16	0.743147
2331.58	-0.0339074
2332.99	-0.101717
2334.4	0.24257
2335.81	0.0604868
2337.23	0.371465
2338.64	-0.107749
2340.05	0.299789
2341.46	0.164135
2342.87	0.274373
2344.28	0.0564599
2345.69	-0.275647
2347.1	0.195453
2348.51	0.436832
2349.92	-0.107633
2351.33	0.361434
2352.74	0.404233
2354.15	0.217677
2355.55	0.373172
2356.96	0.283828
2358.37	0.259698
2359.78	0.0570168
2361.19	-0.080235
2362.59	-0.0712962
2364	-0.0624824
2365.41	-0.069911
2366.81	0.11677
2368.22	0.109874
2369.62	-0.21872
2371.03	0.228031
2372.44	0.256531
2373.84	-0.00396013
2375.24	0.106296
2376.65	0.47353
2378.05	0.549956
2379.46	0.239226
2380.86	-0.00824642
2382.26	0.000130177
2383.67	0.279966
2385.07	0.111075
2386.47	0.0547781
2387.88	-0.112306
2389.28	0.0408416
2390.68	0.115154
2392.08	0.0311913
2393.48	0.473261
2394.89	0.15226
2396.29	0.213699
2397.69	0.355121
2399.09	-0.0432348
2400.49	-0.186818
2401.89	0.146417
2403.29	0.0825577
2404.69	0.129539
2406.09	0.207469
2407.48	0.221063
2408.88	0.138796
2410.28	0.2307
2411.68	0.449461
2413.08	0.130355
2414.48	0.129237
2415.87	-0.0288897
2417.27	0.0991011
2418.67	0.085403
2420.06	0.404594
2421.46	0.0426641
2422.86	-0.0662127
2424.25	0.0940137
2425.65	0.254348
2427.04	0.462755
2428.44	0.101333
2429.83	-0.0215979
2431.23	0.125708
2432.62	0.16216
2434.02	0.198167
2435.41	-0.386377
2436.81	0.0286036
2438.2	0.108653
2439.59	-0.146016
2440.99	-0.0360813
2442.38	0.533672
2443.77	0.071341
2445.16	0.13265
2446.56	0.225486
2447.95	0.207197
2449.34	-0.143717
2450.73	-0.0349617
2452.12	0.264113
2453.51	0.342185
2454.9	0.515927
2456.29	0.0258818
2457.68	-0.0683684
2459.07	0.121953
2460.46	0.280096
2461.85	-0.100101
2463.24	-0.117229
2464.63	0.0863509
2466.02	0.178967
2467.4	0.0346556
2468.79	0.000878334
2470.18	0.187747
2471.57	-0.020031
2472.95	-0.180903
2474.34	0.0985503
2475.73	0.0467176
2477.12	0.308991
2478.5	0.303839
2479.89	0.0948672
2481.27	0.152929
2482.66	-0.243502
2484.04	0.158659
2485.43	0.449846
2486.81	0.348845
2488.2	0.0910482
2489.58	-0.0264959
2490.97	0.0117908
2492.35	-0.384774
2493.73	-0.251597
2495.12	-0.0710187
2496.5	-0.0136619
2497.88	0.106303
2499.27	-0.0987034
2500.65	-0.334651
2502.03	0.340915
2503.41	-0.159017
2504.79	-0.072607
2506.17	0.0285053
2507.56	-0.0862613
2508.94	0.337407
2510.32	-0.222264
2511.7	-0.151225
2513.08	-0.156285
2514.46	-0.267801
2515.84	0.0807581
2517.22	0.215413
2518.59	-0.138819
2519.97	-0.2022
2521.35	-0.235193
2522.73	0.219713
2524.11	0.0479364
2525.49	0.22632
2526.86	0.0235229
2528.24	0.0496669
2529.62	-0.151323
2530.99	0.0596418
2532.37	0.044034
2533.75	0.151175
2535.12	-0.0297256
2536.5	0.260303
2537.88	0.0939698
2539.25	0.24579
2540.63	0.138698
2542	0.243862
2543.38	0.197516
2544.75	0.0913053
2546.12	0.0620742
2547.5	0.140109
2548.87	0.158233
2550.24	0.0701947
2551.62	0.178999
2552.99	0.0745459
2554.36	-0.000438213
2555.74	0.318301
2557.11	0.0448828
2558.48	-0.349776
2559.85	-0.0618162
2561.22	0.04462
2562.59	-0.060565
2563.96	0.168169
2565.34	0.215442
2566.71	0.156865
2568.08	0.401487
2569.45	0.358191
2570.82	-0.0640097
2572.18	0.0291529
2573.55	0.274007
2574.92	0.109677
2576.29	0.127301
2577.66	-0.173538
2579.03	-0.171329
2580.4	0.164184
2581.77	-0.00102234
2583.13	0.470261
2584.5	0.0316758
2585.87	0.15401
2587.23	0.0490961
2588.6	0.232335
2589.97	0.476283
2591.33	0.341252
2592.7	0.311893
2594.06	0.130345
2595.43	0.114583
2596.79	0.400664
2598.16	0.095778
2599.52	0.199141
2600.89	0.07586
2602.25	0.179707
2603.62	0.0123568
2604.98	-0.00346422
2606.34	0.192083
2607.71	-0.366721
2609.07	-0.232456
2610.43	-0.144531
2611.79	-0.102987
2613.16	-0.017375
2614.52	-0.00767803
2615.88	-0.0882215
2617.24	-0.0184708
2618.6	0.261355
2619.96	0.0176868
2621.32	-0.0754132
2622.68	-0.0633221
2624.04	0.277464
2625.4	0.110417
2626.76	0.181973
2628.12	-0.0895629
2629.48	0.0112991
2630.84	0.0672126
2632.2	0.0189033
2633.56	0.0746217
2634.92	0.145089
2636.28	0.141288
2637.63	-0.0403113
2638.99	0.030148
2640.35	0.0414782
2641.71	-0.0208774
2643.06	0.315979
2644.42	0.00298643
2645.77	0.0591741
2647.13	0.144421
2648.49	0.111107
2649.84	-0.0258522
2651.2	0.292601
2652.55	0.0668054
2653.91	0.0910993
2655.26	0.116035
2656.62	-0.0924106
2657.97	0.154168
2659.33	0.123319
2660.68	-0.00948191
2662.03	0.193851
2663.39	0.221182
2664.74	0.0142412
2666.09	0.302847
2667.44	0.197133
2668.8	-0.0831885
2670.15	0.0300364
2671.5	0.099956
2672.85	-0.0330582
2674.2	0.0669899
2675.55	-0.151864
2676.91	0.5295
2678.26	0.0507131
2679.61	0.138449
2680.96	-0.0628672
2682.31	0.11384
2683.66	0.161129
2685	-0.269376
2686.35	-0.1774
2687.7	-0.332266
2689.05	0.223182
2690.4	0.167532
2691.75	-0.00578833
2693.1	-0.0497007
2694.44	0.166644
2695.79	-0.0666194
2697.14	0.613499
2698.49	-0.153783
2699.83	0.0942512
2701.18	-0.105107
2702.52	0.0733476
2703.87	0.499182
2705.22	0.331455
2706.56	0.207148
2707.91	0.242129
2709.25	0.276796
2710.6	0.12239
2711.94	0.316312
2713.29	0.292274
2714.63	0.137365
2715.97	0.360365
2717.32	0.321581
2718.66	0.326215
2720.01	0.141373
2721.35	0.305365
2722.69	0.381662
2724.03	0.282895
2725.38	0.271094
2726.72	0.331752
2728.06	0.523124
2729.4	0.452324
2730.74	0.0613208
2732.08	0.514225
2733.42	0.0506654
2734.76	0.314648
2736.1	0.433335
2737.44	0.508515
2738.78	0.103754
2740.12	0.251441
2741.46	0.282372
2742.8	0.370891
2744.14	0.386096
2745.48	0.35718
2746.82	0.211758
2748.16	0.196954
2749.49	0.182224
2750.83	0.312726
2752.17	0.15342
2753.51	0.255311
2754.84	0.516668
2756.18	0.0248594
2757.52	0.0981941
2758.85	0.359919
2760.19	-0.0293956
2761.53	0.522459
2762.86	0.20645
2764.2	0.440592
2765.53	0.15384
2766.87	0.0692768
2768.2	0.27324
2769.54	0.259088
2770.87	-0.00196457
2772.2	0.342683
2773.54	0.382915
2774.87	0.134303
2776.2	0.116579
2777.54	0.0560427
2778.87	0.456247
2780.2	0.022893
2781.53	0.351509
2782.87	-0.138215
2784.2	-0.111038
2785.53	0.15974
2786.86	0.0579672
2788.19	0.0140247
2789.52	-0.15796
2790.85	0.100014
2792.18	0.129724
2793.51	0.2027
2794.84	0.0470114
2796.17	0.262612
2797.5	0.34907
2798.83	0.135152
2800.16	0.0780516
2801.49	0.0635819
2802.82	0.191551
2804.15	0.20517
2805.47	0.474758
2806.8	0.0603094
2808.13	0.214809
2809.46	0.29768
2810.78	0.437277
2812.11	0.0947514
2813.44	0.0231085
2814.76	0.0945339
2816.09	0.308888
2817.42	-0.170352
2818.74	0.484797
2820.07	0.147797
2821.39	0.278141
2822.72	0.507085
2824.04	0.409548
2825.37	0.0568118
2826.69	0.228252
2828.02	0.230171
2829.34	0.459086
2830.66	0.560971
2831.99	0.7055
2833.31	0.297921
2834.63	0.357195
2835.96	0.557559
2837.28	0.403669
2838.6	0.41923
2839.92	0.858868
2841.24	0.407686
2842.57	0.635556
2843.89	1.1183
2845.21	0.923256
2846.53	0.870079
2847.85	1.18466
2849.17	0.820858
2850.49	1.07868
2851.81	1.06754
2853.13	1.593
2854.45	1.3832
2855.77	1.10267
2857.09	1.50028
2858.41	1.44583
2859.72	1.2078
2861.04	1.84513
2862.36	1.23963
2863.68	1.80552
2865	2.06049
2866.31	1.69462
2867.63	2.13303
2868.95	2.10633
2870.26	2.29147
2871.58	2.37802
2872.9	2.4079
2874.21	2.49346
2875.53	2.04278
2876.84	2.57703
2878.16	2.47684
2879.47	2.44683
2880.79	2.45931
2882.1	2.26175
2883.42	2.5849
2884.73	2.5015
2886.05	2.82575
2887.36	2.61658
2888.67	2.6316
2889.99	2.36536
2891.3	2.64542
2892.61	2.95274
2893.92	2.68528
2895.24	2.85247
2896.55	2.6843
2897.86	2.78302
2899.17	3.20437
2900.48	2.80093
2901.79	2.5518
2903.11	2.65256
2904.42	3.11708
2905.73	3.24612
2907.04	3.29172
2908.35	3.28207
2909.66	3.14721
2910.97	3.47459
2912.27	3.20014
2913.58	3.49892
2914.89	3.79652
2916.2	3.68657
2917.51	3.78522
2918.82	4.02284
2920.13	3.98046
2921.43	3.92471
2922.74	4.07974
2924.05	4.11012
2925.35	4.23931
2926.66	4.15933
2927.97	4.42883
2929.27	4.47431
2930.58	4.85478
2931.89	4.87131
2933.19	4.48222
2934.5	4.62427
2935.8	4.51481
2937.11	4.61511
2938.41	4.57579
2939.72	4.35504
2941.02	4.58187
2942.32	3.74741
2943.63	3.83619
2944.93	3.54867
2946.24	3.72341
2947.54	3.47901
2948.84	3.38813
2950.14	3.5062
2951.45	3.32872
2952.75	3.06559
2954.05	3.22136
2955.35	3.20878
2956.65	2.84702
2957.95	2.99081
2959.26	3.47288
2960.56	3.00509
2961.86	3.14118
2963.16	3.05356
2964.46	3.09162
2965.76	2.83347
2967.06	2.95311
2968.36	2.87486
2969.66	2.6834
2970.96	2.6183
2972.25	2.41268
2973.55	2.72788
2974.85	2.52234
2976.15	2.3161
2977.45	2.22134
2978.74	2.0688
2980.04	2.40751
2981.34	2.182
2982.64	1.75927
2983.93	2.09631
2985.23	2.05451
2986.52	1.69076
2987.82	1.96055
2989.12	1.78143
2990.41	1.60244
2991.71	2.06946
2993	1.66416
2994.3	1.76364
2995.59	1.21594
2996.89	1.62269
2998.18	1.76221
2999.48	1.41082
3000.77	1.08815
3002.06	1.4109
3003.36	1.14521
3004.65	1.10382
3005.94	0.712057
3007.23	0.851936
3008.53	0.823027
3009.82	0.611575
3011.11	0.693136
3012.4	0.85792
3013.69	0.994479
3014.99	0.866261
3016.28	0.585515
3017.57	0.723319
3018.86	0.499541
3020.15	0.470675
3021.44	0.816639
3022.73	0.786338
3024.02	0.519249
3025.31	0.5292
3026.6	0.414222
3027.89	0.424319
3029.18	0.490541
3030.46	0.544019
3031.75	0.584782
3033.04	0.281178
3034.33	0.640357
3035.62	0.584853
3036.9	0.734985
3038.19	0.52509
3039.48	0.121241
3040.76	0.500366
3042.05	0.410989
3043.34	0.554728
3044.62	0.493413
3045.91	0.529256
3047.19	0.566795
3048.48	0.469662
3049.77	0.606328
3051.05	0.771466
3052.34	0.500529
3053.62	0.325032
3054.9	0.57183
3056.19	0.162899
3057.47	0.666613
3058.76	0.787549
3060.04	0.839923
3061.32	0.810822
3062.61	0.510477
3063.89	0.972857
3065.17	0.62062
3066.45	0.799729
3067.74	0.449341
3069.02	0.575031
3070.3	0.605193
3071.58	0.389673
3072.86	0.349822
3074.14	0.349607
3075.42	0.294147
3076.7	0.387731
3077.99	0.264288
3079.26	0.508069
3080.54	0.264541
3081.82	0.293541
3083.1	0.255632
3084.38	0.462401
3085.66	0.289153
3086.94	0.346086
3088.22	0.225831
3089.5	0.417028
3090.78	0.322685
3092.05	0.363788
3093.33	0.133598
3094.61	-0.0285826
3095.89	0.0805507
3097.16	0.338689
3098.44	0.0950589
3099.72	0.000328064
3100.99	0.338904
3102.27	0.0678043
3103.54	0.176017
3104.82	0.162646
3106.1	-0.0126405
3107.37	-0.214348
3108.65	-0.0499644
3109.92	0.182873
3111.2	-0.00323868
3112.47	0.014183
3113.74	0.153782
3115.02	0.0764155
3116.29	0.0255604
3117.56	0.502766
3118.84	0.12443
3120.11	-0.0108552
3121.38	0.246145
3122.66	-0.202399
3123.93	0.134762
3125.2	-0.137672
3126.47	0.0640101
3127.74	-0.140034
3129.01	-0.0596714
3130.29	0.0207548
3131.56	0.222692
3132.83	-0.129813
3134.1	-0.185399
3135.37	-0.0255566
3136.64	0.0794697
3137.91	-0.153308
3139.18	0.00440502
3140.45	0.18843
3141.72	0.156829
3142.99	-0.183689
3144.26	0.0806613
3145.52	0.22418
3146.79	-0.0745015
3148.06	-0.037528
3149.33	-0.201145
