200.398	0.157731
202.213	0.185866
204.027	0.215089
205.843	0.00180244
207.657	-0.089673
209.47	-0.254555
211.283	-0.104615
213.097	0.0681686
214.909	0.360841
216.721	0.119164
218.533	0.241014
220.344	0.363068
222.157	0.00188541
223.967	0.294478
225.777	-0.379501
227.587	-0.135029
229.396	-0.0119543
231.205	-0.203374
233.016	-0.177894
234.824	0.233466
236.632	0.163333
238.439	0.456409
240.247	-0.0920982
242.053	0.228989
243.86	0.0689211
245.666	-0.0190411
247.474	0.0363998
249.279	-0.00715065
251.085	0.236234
252.889	0.33214
254.694	0.305645
256.498	-0.0347939
258.301	0.252207
260.105	0.0102606
261.908	-0.013278
263.71	0.205391
265.513	-0.0810642
267.315	0.35557
269.116	0.0688553
270.918	0.52862
272.718	-0.0252981
274.519	-0.050108
276.319	-0.0763845
278.119	-0.513946
279.918	0.10691
281.718	0.388222
283.516	0.547125
285.315	0.19981
287.113	0.620441
288.911	0.824303
290.708	0.501327
292.505	0.227832
294.302	0.195181
296.098	0.115931
297.894	-0.0819063
299.69	0.0791254
301.485	0.0726433
303.278	0.399633
305.073	0.462711
306.867	0.453251
308.661	0.252789
310.454	0.577073
312.247	-0.169735
314.04	0.109057
315.833	0.603559
317.623	0.575691
319.415	0.382365
321.206	0.0706625
322.997	0.355409
324.788	0.163568
326.579	0.47292
328.367	0.161188
330.156	0.589558
331.946	0.491117
333.735	0.438903
335.523	0.0258198
337.31	0.376434
339.098	0.198784
340.885	0.737272
342.673	0.318347
344.458	0.807602
346.244	0.580303
348.03	0.377584
349.816	-0.0156269
351.6	0.426672
353.385	0.271725
355.17	0.736144
356.953	-0.0408878
358.737	0.301746
360.521	0.238072
362.304	0.221239
364.085	0.179952
365.868	0.375659
367.65	0.309209
369.431	0.692625
371.212	0.174354
372.994	0.413695
374.773	0.179457
376.554	0.441471
378.332	-0.0512838
380.112	-0.0947504
381.892	0.380589
383.669	0.291731
385.448	0.298075
387.225	0.422897
389.003	-0.344102
390.781	-0.00612164
392.557	-0.0668564
394.334	0.295604
396.109	-0.0462008
397.885	0.434044
399.66	0.773231
401.436	0.407409
403.211	0.205434
404.984	0.730876
406.759	0.785876
408.532	0.370721
410.306	0.307511
412.078	-0.365871
413.851	0.486483
415.623	0.729177
417.395	-0.0833464
419.166	-0.0976305
420.938	0.263808
422.708	-0.219939
424.477	0.046875
426.248	0.0312424
428.017	0.155741
429.788	0.303264
431.556	0.403747
433.326	0.0820074
435.093	0.0186901
436.86	0.283918
438.629	-0.296308
440.395	0.0845156
442.163	-0.146359
443.929	0.183873
445.694	0.51211
447.461	0.0663605
449.226	0.0886521
450.99	0.414674
452.756	0.133438
454.52	0.342676
456.285	0.248563
458.048	0.154465
459.811	0.0372667
461.573	0.362581
463.337	0.316877
465.099	0.691413
466.86	0.487424
468.623	0.215955
470.384	0.155132
472.144	0.211126
473.906	-0.12918
475.666	0.693346
477.425	0.605917
479.184	0.58672
480.944	0.31041
482.703	-0.198674
484.461	0.574131
486.218	0.649888
487.975	0.284711
489.734	0.527245
491.491	0.257484
493.247	0.268182
495.003	0.629864
496.759	0.547394
498.516	0.628545
500.271	0.474929
502.025	0.555202
503.779	0.118111
505.533	0.00852156
507.287	0.532624
509.042	0.114925
510.795	0.542729
512.547	0.357495
514.299	0.288657
516.051	0.665668
517.803	0.594604
519.554	0.593246
521.305	0.638223
523.055	0.166081
524.805	0.891291
526.555	0.278539
528.307	0.346401
530.056	0.367238
531.805	0.17693
533.553	0.594792
535.301	0.543296
537.049	0.67766
538.797	0.11016
540.544	0.662292
542.291	0.0477886
544.037	0.155644
545.783	0.402619
547.529	0.0921221
549.275	0.895305
551.02	0.0990639
552.765	-0.255781
554.509	0.360771
556.253	0.0760102
557.997	0.322521
559.738	0.315549
561.482	0.239982
563.224	0.487042
564.967	0.550347
566.709	0.499259
568.451	0.219326
570.192	0.170007
571.933	0.213598
573.674	-0.177336
575.415	0.0984035
577.153	-0.106297
578.893	-0.585552
580.632	0.198542
582.371	0.133308
584.11	0.343477
585.849	-0.0449595
587.587	0.600551
589.323	0.163943
591.06	0.0716095
592.797	-0.0671816
594.534	-0.114075
596.271	0.000105381
598.005	0.13727
599.741	-0.462036
601.476	0.226329
603.211	0.131509
604.944	0.380419
606.679	0.352281
608.413	0.185691
610.147	-0.210348
611.878	-0.376201
613.611	0.215308
615.344	-0.155716
617.077	0.229748
618.807	0.225207
620.539	0.0137949
622.27	0.0303984
623.999	0.389186
625.73	0.244855
627.461	-0.126766
629.189	0.256587
630.919	0.345006
632.648	0.412305
634.376	0.434901
636.105	0.731219
637.833	0.364175
639.559	0.0863333
641.287	-0.0111728
643.013	0.0490499
644.74	0.449646
646.467	0.303754
648.192	0.341439
649.918	0.267989
651.642	-0.0522795
653.368	0.17591
655.091	-0.0933971
656.816	0.276191
658.538	0.55617
660.263	0.448555
661.987	0.362309
663.708	0.319773
665.432	1.00681
667.153	0.503486
668.875	0.250867
670.596	0.250269
672.318	0.480066
674.037	0.483112
675.759	0.373353
677.478	0.516814
679.196	0.637765
680.917	0.206448
682.635	0.601207
684.355	0.787545
686.072	0.465729
687.791	0.510931
689.508	0.62434
691.224	0.115195
692.942	1.1028
694.658	0.431301
696.376	0.40398
698.091	0.0994668
699.805	0.576561
701.522	0.431268
703.236	0.905929
704.95	0.437672
706.665	0.795863
708.379	0.648647
710.093	0.432594
711.806	0.308192
713.518	0.984322
715.23	0.904922
716.943	0.779937
718.655	0.974626
720.366	0.895611
722.078	0.976265
723.788	0.533522
725.498	1.02352
727.208	0.808295
728.919	1.06965
730.628	1.26212
732.337	1.1368
734.045	0.762662
735.755	1.29341
737.463	0.897611
739.17	1.49576
740.877	0.944099
742.584	1.25027
744.292	1.19699
745.998	1.70757
747.704	0.599267
749.409	0.887125
751.114	1.22096
752.819	1.69087
754.526	1.5322
756.23	1.17221
757.934	1.46618
759.637	1.37874
761.34	0.976538
763.043	1.00289
764.746	1.48068
766.448	0.760697
768.152	1.553
769.853	1.39433
771.554	1.3243
773.255	1.13996
774.956	1.72398
776.656	1.51702
778.356	1.35636
780.056	1.67188
781.755	1.46822
783.454	2.14721
785.153	2.05597
786.851	1.35144
788.549	1.50445
790.247	1.65452
791.944	1.46299
793.641	1.72197
795.338	1.75457
797.034	2.1034
798.73	1.55226
800.426	1.72366
802.121	1.42369
803.817	0.854687
805.511	1.7023
807.206	1.87439
808.9	1.39402
810.592	1.56407
812.286	1.19487
813.979	1.90125
815.672	2.09131
817.364	1.02839
819.057	1.84465
820.748	1.72179
822.44	1.95644
824.129	2.4813
825.82	1.71428
827.511	2.13039
829.201	2.081
830.891	1.90069
832.581	1.6337
834.269	1.45747
835.958	1.92875
837.646	1.32923
839.335	1.68825
841.023	1.46546
842.709	1.50949
844.396	1.84357
846.084	1.17252
847.77	1.46393
849.455	2.138
851.141	1.89722
852.827	1.6129
854.513	1.32883
856.196	1.6505
857.881	1.36485
859.566	1.45982
861.248	1.89113
862.932	0.789586
864.616	1.46641
866.297	1.21861
867.98	1.55639
869.663	1.37519
871.343	1.17108
873.026	1.28257
874.707	0.829921
876.387	1.16699
878.068	1.79756
879.747	1.29956
881.428	1.59127
883.108	1.36316
884.786	1.17928
886.465	1.10714
888.143	1.37217
889.822	1.77091
891.498	1.15372
893.177	1.14429
894.855	1.24638
896.53	0.695459
898.208	1.35748
899.883	1.23216
901.56	0.949581
903.234	1.22666
904.91	1.21231
906.584	1.28747
908.26	1.16228
909.933	1.3499
911.608	1.11517
913.28	1.39269
914.955	1.3369
916.627	1.14818
918.298	1.07057
919.972	1.08172
921.643	1.1818
923.315	1.34893
924.986	1.03122
926.656	1.37776
928.328	1.0633
929.997	1.23554
931.668	1.12147
933.337	0.963563
935.006	1.31315
936.676	0.516134
938.344	1.59451
940.012	1.68146
941.681	0.62236
943.348	0.666695
945.014	1.28481
946.683	0.930947
948.349	1.14947
950.015	0.770459
951.682	0.875975
953.347	0.915256
955.012	0.757275
956.676	0.866124
958.343	0.823232
960.006	0.694307
961.67	1.22915
963.333	0.836339
964.998	0.618628
966.661	0.420724
968.323	0.419673
969.985	0.461187
971.649	0.634656
973.31	0.91895
974.971	0.806293
976.632	0.473941
978.293	0.25327
979.953	0.541973
981.615	0.83056
983.274	0.786117
984.933	0.939322
986.592	0.69237
988.251	0.28922
989.909	0.747827
991.567	0.851776
993.225	0.403257
994.884	0.661696
996.541	0.875811
998.198	1.08965
999.855	1.50137
1001.51	1.36168
1003.17	1.13376
1004.82	0.488027
1006.48	0.546319
1008.13	0.341095
1009.79	1.03613
1011.44	0.305123
1013.1	0.758896
1014.75	0.511527
1016.4	0.658799
1018.06	-0.0251379
1019.71	0.145135
1021.36	0.250477
1023.01	0.269183
1024.66	0.63831
1026.32	0.461524
1027.97	0.372207
1029.62	0.588277
1031.27	0.257277
1032.92	-0.0747318
1034.57	0.421417
1036.22	0.654189
1037.87	0.559126
1039.52	0.0722933
1041.16	0.69601
1042.81	0.559098
1044.46	0.641008
1046.11	0.0511045
1047.76	0.440196
1049.4	0.613385
1051.05	0.418388
1052.7	0.0501928
1054.34	0.812078
1055.99	0.400647
1057.63	-0.22857
1059.28	0.533134
1060.92	0.185548
1062.57	-0.184426
1064.21	0.727776
1065.85	0.595399
1067.5	0.0492458
1069.14	-0.106263
1070.78	-0.0232735
1072.43	0.102937
1074.07	-0.204575
1075.71	-0.0555992
1077.35	0.311168
1078.99	0.396919
1080.63	0.24476
1082.27	-0.210953
1083.91	0.178354
1085.55	0.154428
1087.19	0.605615
1088.83	0.34005
1090.47	0.354709
1092.11	0.541301
1093.75	-0.223117
1095.39	0.610617
1097.03	0.494988
1098.66	0.229861
1100.3	0.440059
1101.94	0.479439
1103.57	0.06847
1105.21	0.347015
1106.84	0.0237656
1108.48	0.60359
1110.11	0.214828
1111.75	0.448343
1113.38	0.0144091
1115.02	0.352826
1116.65	0.389948
1118.29	0.491387
1119.92	-0.0495024
1121.55	0.802827
1123.19	0.00717163
1124.82	0.453856
1126.45	0.302065
1128.08	-0.127027
1129.71	0.535026
1131.34	-0.192257
1132.97	0.342098
1134.6	-0.363514
1136.23	0.170192
1137.86	0.660135
1139.49	0.20896
1141.12	-0.135913
1142.75	0.0312691
1144.38	0.241021
1146.01	0.0673647
1147.64	-0.766048
1149.26	0.596116
1150.89	0.0835867
1152.52	-0.258318
1154.15	0.102244
1155.77	0.292017
1157.4	-0.0928946
1159.02	0.373474
1160.65	0.37245
1162.27	0.0746536
1163.9	0.415546
1165.52	0.608034
1167.15	-0.0501366
1168.77	0.0775738
1170.39	0.225186
1172.02	-0.0112581
1173.64	0.281947
1175.26	-0.253686
1176.89	0.546616
1178.51	-0.264071
1180.13	0.239347
1181.75	0.213947
1183.37	-0.191433
1184.99	-0.279348
1186.61	0.202302
1188.23	-0.33078
1189.85	0.0841331
1191.47	0.559793
1193.09	0.0447855
1194.71	0.202384
1196.33	-0.0388288
1197.94	-0.0483685
1199.56	0.466298
1201.18	-0.0629263
1202.8	0.266848
1204.41	0.07658
1206.03	0.55582
1207.65	0.514453
1209.26	0.890557
1210.88	0.410803
1212.49	-0.195153
1214.11	-0.0729227
1215.72	0.526326
1217.34	0.374167
1218.95	0.637071
1220.57	0.961574
1222.18	0.352732
1223.79	1.09286
1225.41	0.466552
1227.02	0.338952
1228.63	0.440133
1230.24	1.12119
1231.85	0.955369
1233.47	1.14201
1235.08	0.999017
1236.69	0.795044
1238.3	1.02602
1239.91	0.802763
1241.52	0.786406
1243.13	1.12149
1244.74	0.462852
1246.34	0.796525
1247.95	0.798289
1249.56	1.00632
1251.17	0.903705
1252.78	0.925395
1254.38	0.968355
1255.99	0.908797
1257.6	1.07783
1259.2	1.39277
1260.81	0.425316
1262.42	0.679314
1264.02	0.581381
1265.63	0.545236
1267.23	0.84014
1268.84	0.533181
1270.44	1.19982
1272.04	1.22285
1273.65	0.93401
1275.25	1.10044
1276.85	0.602888
1278.46	0.705717
1280.06	1.05643
1281.66	0.661492
1283.26	1.15655
1284.86	1.19669
1286.46	0.948146
1288.07	0.74194
1289.67	1.54918
1291.27	1.03423
1292.87	1.05653
1294.47	1.22284
1296.06	1.09887
1297.66	1.32457
1299.26	1.40418
1300.86	1.25559
1302.46	1.25034
1304.06	1.53238
1305.65	1.07312
1307.25	1.64123
1308.85	0.792292
1310.44	1.29775
1312.04	1.12686
1313.64	1.34555
1315.23	1.01296
1316.83	1.45761
1318.42	1.47363
1320.02	1.44879
1321.61	1.01583
1323.2	1.31499
1324.8	1.32745
1326.39	1.52137
1327.99	1.45068
1329.58	1.15791
1331.17	0.80648
1332.76	0.94253
1334.36	1.22155
1335.95	1.36038
1337.54	1.7416
1339.13	0.993081
1340.72	1.17073
1342.31	1.74875
1343.9	1.39916
1345.49	1.25015
1347.08	1.54267
1348.67	0.93463
1350.26	0.970214
1351.85	0.847888
1353.43	1.0473
1355.02	0.708054
1356.61	0.529186
1358.2	1.50873
1359.78	0.889293
1361.37	0.828356
1362.96	0.766781
1364.54	0.904332
1366.13	1.06184
1367.71	0.941038
1369.3	0.821359
1370.88	1.43927
1372.47	1.00355
1374.05	0.946939
1375.64	0.990397
1377.22	0.795182
1378.8	0.73886
1380.39	0.602152
1381.97	0.544015
1383.55	0.484866
1385.13	0.921884
1386.72	0.424335
1388.3	0.642256
1389.88	0.443675
1391.46	0.722195
1393.04	0.30689
1394.62	0.863951
1396.2	0.567989
1397.78	0.648273
1399.36	0.0539837
1400.94	0.429959
1402.52	0.587328
1404.1	0.74449
1405.68	0.486655
1407.25	0.328578
1408.83	0.744296
1410.41	0.666379
1411.98	0.726727
1413.56	1.10241
1415.14	0.52994
1416.71	0.509516
1418.29	0.587339
1419.87	0.586524
1421.44	1.05913
1423.02	1.02091
1424.59	1.20062
1426.16	0.594135
1427.74	0.676996
1429.31	0.543164
1430.89	0.821959
1432.46	1.80816
1434.03	0.924113
1435.6	1.79054
1437.18	1.37864
1438.75	1.59659
1440.32	1.34367
1441.89	1.42572
1443.46	1.88181
1445.03	1.31628
1446.6	1.59604
1448.17	1.56146
1449.74	1.13393
1451.31	1.51284
1452.88	1.59737
1454.45	1.13149
1456.02	1.66883
1457.59	1.55646
1459.16	1.32491
1460.72	1.72163
1462.29	1.30994
1463.86	1.29044
1465.43	0.916218
1466.99	1.09212
1468.56	1.15031
1470.13	0.659708
1471.69	1.03358
1473.26	0.702062
1474.82	0.645872
1476.38	0.197906
1477.95	0.573546
1479.51	0.557013
1481.08	0.834404
1482.64	0.719715
1484.2	0.996843
1485.77	0.431224
1487.33	0.100294
1488.89	0.492974
1490.46	0.0424743
1492.02	0.627172
1493.58	0.779365
1495.14	0.0322986
1496.7	-0.207196
1498.26	0.351583
1499.82	-0.101276
1501.38	0.398993
1502.94	0.200971
1504.5	0.275302
1506.06	0.40781
1507.62	0.172154
1509.18	-0.392222
1510.73	0.43317
1512.29	0.195894
1513.85	0.420849
1515.41	-0.0850911
1516.96	0.543404
1518.52	0.346447
1520.08	-0.0219603
1521.63	0.184655
1523.19	0.218571
1524.75	0.59547
1526.3	0.322348
1527.85	0.258675
1529.41	0.47995
1530.96	0.149936
1532.52	0.181491
1534.07	0.043222
1535.62	0.492454
1537.18	0.752495
1538.73	0.748336
1540.28	0.744514
1541.84	0.439386
1543.39	0.530013
1544.94	0.319479
1546.49	0.785385
1548.04	0.480916
1549.59	0.608153
1551.14	0.885086
1552.69	0.787758
1554.25	0.747443
1555.79	0.633616
1557.34	0.70801
1558.89	0.504038
1560.44	0.898672
1561.99	0.753567
1563.54	0.684011
1565.08	0.988104
1566.63	1.21775
1568.18	0.831354
1569.73	1.02321
1571.27	0.934779
1572.82	1.57413
1574.37	0.589317
1575.91	1.24725
1577.46	1.08399
1579	1.33178
1580.55	1.18804
1582.09	1.21299
1583.64	1.38812
1585.18	1.05942
1586.73	1.31047
1588.27	1.48704
1589.81	1.19581
1591.35	0.679372
1592.9	0.368178
1594.44	0.974351
1595.98	1.18746
1597.52	1.00745
1599.06	1.39034
1600.61	1.51155
1602.15	1.44561
1603.69	0.891371
1605.23	1.48207
1606.77	1.13245
1608.31	0.856267
1609.85	1.19847
1611.39	1.51985
1612.93	1.40734
1614.46	0.749552
1616	0.992524
1617.54	1.2168
1619.08	1.29189
1620.61	1.16216
1622.15	1.31452
1623.69	1.01823
1625.23	0.684638
1626.76	0.799756
1628.3	0.913817
1629.83	1.19498
1631.37	1.41891
1632.9	1.0632
1634.44	1.82817
1635.97	1.69744
1637.51	1.13869
1639.04	1.25208
1640.57	1.1977
1642.11	1.12426
1643.64	1.31069
1645.17	1.30983
1646.71	1.10367
1648.24	1.10193
1649.77	1.58327
1651.3	1.50808
1652.83	1.58241
1654.36	1.30536
1655.89	1.49244
1657.42	1.47555
1658.96	1.77293
1660.48	1.49506
1662.01	1.49379
1663.54	1.75035
1665.07	1.43342
1666.6	1.3941
1668.13	1.70615
1669.66	1.42923
1671.19	1.81715
1672.71	1.57951
1674.24	1.60023
1675.77	1.39984
1677.29	1.30937
1678.82	1.36524
1680.35	0.942148
1681.87	1.03342
1683.4	0.903949
1684.92	0.60954
1686.45	0.737567
1687.97	0.572541
1689.5	0.811022
1691.02	0.481863
1692.54	0.665518
1694.07	0.574577
1695.59	0.465321
1697.11	0.867609
1698.64	0.301317
1700.16	0.520142
1701.68	0.464717
1703.2	0.0991135
1704.72	0.188915
1706.25	0.351013
1707.77	0.185384
1709.29	0.346924
1710.81	0.653431
1712.33	0.415574
1713.85	0.250715
1715.37	0.158596
1716.89	0.175117
1718.41	0.137293
1719.92	0.38841
1721.44	0.0257735
1722.96	0.0787902
1724.48	-0.101759
1725.99	-0.281156
1727.51	-0.0814385
1729.03	0.62273
1730.55	0.266168
1732.06	0.0927191
1733.58	-0.0432582
1735.09	0.272793
1736.61	0.0487247
1738.13	0.337224
1739.64	0.462234
1741.15	0.258133
1742.67	0.0675206
1744.18	-0.0318666
1745.7	0.12525
1747.21	0.459091
1748.72	0.164569
1750.24	0.441968
1751.75	-0.0819755
1753.26	0.281223
1754.77	0.0208755
1756.29	0.0979652
1757.8	-0.00153589
1759.31	0.101251
1760.82	0.0637212
1762.33	0.16335
1763.84	0.0886559
1765.35	0.160892
1766.86	0.246783
1768.37	-0.0113688
1769.88	0.03054
1771.39	0.262019
1772.9	0.0132837
1774.4	0.0438547
1775.91	0.173986
1777.42	-0.0430923
1778.93	0.234149
1780.44	0.207128
1781.94	0.0133901
1783.45	0.113202
1784.96	0.0230336
1786.46	0.0625424
1787.97	0.0682454
1789.47	0.132893
1790.98	0.00897503
1792.48	-0.00673246
1793.99	0.0512671
1795.49	0.00973845
1797	-0.0458117
1798.5	0.0510111
1800.01	0.0484476
1801.51	-0.216999
1803.01	0.250918
1804.51	-0.225657
1806.02	-0.0393877
1807.52	0.0563054
1809.02	0.013907
1810.52	-0.00394821
1812.02	0.0265603
1813.52	-0.0198097
1815.02	-0.0518818
1816.53	0.0288062
1818.03	0.109373
1819.52	0.128294
1821.02	-0.160157
1822.52	-0.164079
1824.02	0.170361
1825.52	0.212029
1827.02	0.00882912
1828.52	0.155667
1830.02	0.211596
1831.51	-0.00603819
1833.01	0.000144005
1834.51	0.07654
1836.01	0.0721927
1837.5	0.0879292
1839	-0.0856442
1840.49	-0.128692
1841.99	0.0535064
1843.49	-0.237305
1844.98	0.0371161
1846.48	-0.0316463
1847.97	-0.114369
1849.47	-0.10107
1850.96	0.00672913
1852.45	0.208979
1853.95	0.168406
1855.44	0.0705323
1856.93	-0.0787873
1858.42	0.134094
1859.92	-0.310375
1861.41	0.0547047
1862.9	0.0778999
1864.39	-0.304373
1865.88	0.104699
1867.38	0.118403
1868.87	-0.181487
1870.36	0.0923533
1871.85	0.118449
1873.34	0.0194592
1874.83	0.156671
1876.32	-0.0470886
1877.81	0.110602
1879.29	0.238415
1880.78	0.0635056
1882.27	0.132005
1882.53	0.158152
1884.03	-0.0497432
1885.52	0.0381598
1887.01	0.0904884
1888.51	0.107564
1890	0.0029788
1891.5	-0.170331
1892.99	0.422658
1894.48	0.35626
1895.97	0.0128636
1897.47	0.278688
1898.96	0.0574579
1900.45	0.183328
1901.94	0.047019
1903.43	0.257237
1904.92	-0.00316286
1906.41	0.292066
1907.9	-0.0902762
1909.39	-0.315586
1910.88	0.0672412
1912.37	0.0688853
1913.86	0.0882931
1915.35	0.350523
1916.84	-0.0290742
1918.33	0.163068
1919.81	0.164159
1921.3	-0.025353
1922.79	0.305028
1924.28	0.289681
1925.76	-0.434554
1927.25	0.209631
1928.73	0.248413
1930.22	0.200584
1931.71	0.221395
1933.19	0.0506263
1934.68	0.259414
1936.16	0.32833
1937.65	0.24063
1939.13	0.169966
1940.62	-0.366593
1942.1	0.426913
1943.58	0.444211
1945.07	0.117289
1946.55	0.0149608
1948.03	0.291651
1949.51	0.10245
1951	0.153714
1952.48	0.393492
1953.96	0.185431
1955.44	0.269709
1956.92	0.422858
1958.4	0.370403
1959.88	0.2328
1961.36	0.301497
1962.84	0.198885
1964.32	0.301804
1965.8	-0.0581269
1967.28	0.129488
1968.76	0.453217
1970.24	0.177811
1971.72	0.329594
1973.2	0.361635
1974.67	0.274308
1976.15	0.511068
1977.63	0.287761
1979.1	0.30312
1980.58	-0.0217648
1982.06	0.282585
1983.54	0.297513
1985.01	0.312158
1986.49	0.29266
1987.96	0.340959
1989.44	0.474095
1990.91	0.38757
1992.39	0.538658
1993.86	-0.171793
1995.33	0.166667
1996.81	0.0659766
1998.28	0.10042
1999.75	-0.101835
2001.23	0.134369
2002.7	0.0157828
2004.17	0.0489278
2005.65	0.183379
2007.12	0.0824614
2008.59	0.251718
2010.06	0.0679955
2011.53	-0.0311208
2013	0.324259
2014.47	-0.0444183
2015.94	0.326753
2017.41	0.478359
2018.88	0.377033
2020.35	0.678625
2021.82	0.392018
2023.29	0.391294
2024.76	0.156272
2026.23	0.0900173
2027.69	0.108696
2029.16	0.497471
2030.63	0.216318
2032.1	0.153899
2033.56	0.175716
2035.03	0.281501
2036.5	-0.0329213
2037.96	0.0553608
2039.43	0.395489
2040.89	0.315447
2042.36	0.101134
2043.83	0.257271
2045.29	-0.0401382
2046.75	0.268787
2048.22	0.460346
2049.68	0.634996
2051.15	0.438056
2052.61	-0.0469036
2054.07	0.647256
2055.54	0.159566
2057	0.277944
2058.46	0.210273
2059.92	0.378341
2061.39	0.142486
2062.85	0.462848
2064.31	0.211617
2065.77	0.550184
2067.23	0.283528
2068.69	0.0340958
2070.15	0.643317
2071.61	0.562479
2073.07	0.0268841
2074.53	0.619196
2075.99	0.402998
2077.45	0.523304
2078.91	0.47489
2080.37	0.543994
2081.82	0.646311
2083.28	0.461907
2084.74	0.512609
2086.2	0.579521
2087.65	0.444125
2089.11	0.174081
2090.57	0.340872
2092.02	0.473845
2093.48	0.388465
2094.94	0.219124
2096.39	0.552402
2097.85	0.315287
2099.3	0.479693
2100.76	0.426203
2102.21	0.55676
2103.66	0.687749
2105.12	0.452402
2106.57	0.618698
2108.03	0.435433
2109.48	0.40257
2110.93	0.502674
2112.38	0.335096
2113.84	0.299652
2115.29	0.562578
2116.74	0.674751
2118.19	0.288662
2119.64	0.319094
2121.09	0.350881
2122.54	0.782085
2123.99	0.799655
2125.45	0.469508
2126.89	0.305007
2128.34	0.454766
2129.79	0.735971
2131.24	0.784064
2132.69	0.632851
2134.14	0.597578
2135.59	0.0834265
2137.04	0.314507
2138.48	0.86078
2139.93	0.482935
2141.38	0.453318
2142.83	0.75526
2144.27	0.627788
2145.72	0.682348
2147.17	0.852617
2148.61	0.376574
2150.06	0.363487
2151.5	0.714188
2152.95	0.484268
2154.39	0.651389
2155.84	0.287995
2157.28	1.05114
2158.73	0.439869
2160.17	0.922869
2161.61	0.77767
2163.06	0.666881
2164.5	0.955235
2165.94	0.862765
2167.38	0.786689
2168.83	0.892589
2170.27	0.598078
2171.71	0.418277
2173.15	0.835936
2174.59	1.01963
2176.03	1.05313
2177.47	0.804104
2178.91	0.738577
2180.36	0.790146
2181.8	0.875612
2183.23	1.17771
2184.67	0.698385
2186.11	0.651453
2187.55	0.737618
2188.99	0.64077
2190.43	1.00994
2191.87	0.829618
2193.3	0.632032
2194.74	0.78309
2196.18	0.716349
2197.62	0.631531
2199.05	0.76168
2200.49	0.791176
2201.93	1.00312
2203.36	0.667761
2204.8	0.118073
2206.23	0.845794
2207.67	0.761506
2209.1	0.511545
2210.54	0.4433
2211.97	0.72175
2213.41	0.552971
2214.84	0.582535
2216.27	0.628989
2217.71	0.989675
2219.14	0.476957
2220.57	0.591681
2222.01	0.525124
2223.44	0.55693
2224.87	0.653535
2226.3	0.682907
2227.73	0.628764
2229.16	0.885783
2230.6	0.698702
2232.03	0.462705
2233.46	0.129214
2234.89	0.614521
2236.32	0.348268
2237.75	0.279481
2239.18	0.2937
2240.61	0.586632
2242.03	0.326246
2243.46	0.295106
2244.89	0.508878
2246.32	0.428563
2247.75	0.493865
2249.17	-0.0293288
2250.6	0.668307
2252.03	0.56598
2253.46	0.316835
2254.88	0.669479
2256.31	0.535594
2257.73	0.630792
2259.16	0.322488
2260.59	0.68155
2262.01	0.409604
2263.44	0.398415
2264.86	0.549929
2266.29	0.571256
2267.71	0.185292
2269.14	0.579497
2270.56	0.0942822
2271.98	0.536569
2273.4	0.62061
2274.83	0.411526
2276.25	0.316535
2277.67	0.466089
2279.09	0.322313
2280.52	0.504546
2281.94	0.181128
2283.36	0.510065
2284.78	0.414896
2286.2	-0.137215
2287.62	0.241292
2289.04	0.555022
2290.46	0.379072
2291.88	0.105087
2293.3	0.305218
2294.72	0.521862
2296.14	0.427615
2297.56	0.218607
2298.98	0.287951
2300.4	0.128026
2301.82	0.312493
2303.23	0.366092
2304.65	0.222874
2306.07	0.654258
2307.49	0.395686
2308.9	0.563857
2310.32	0.25483
2311.73	0.389421
2313.15	0.112708
2314.57	0.148825
2315.98	0.0866828
2317.4	0.420432
2318.81	0.111959
2320.23	0.0338807
2321.64	0.383959
2323.06	0.501797
2324.47	0.535378
2325.88	0.418748
2327.3	0.498834
2328.71	0.973777
2330.12	0.67418
2331.54	0.375562
2332.95	0.505905
2334.36	0.176097
2335.77	0.192067
2337.18	0.0267844
2338.6	0.452753
2340.01	0.0558901
2341.42	-0.0948849
2342.83	0.0659723
2344.24	0.636569
2345.65	0.419947
2347.06	0.33483
2348.47	0.282568
2349.88	0.328227
2351.29	0.324199
2352.7	-0.0235391
2354.1	-0.044982
2355.51	0.519907
2356.92	-0.0726929
2358.33	0.490731
2359.74	0.273168
2361.14	0.543024
2362.55	0.228623
2363.96	0.271101
2365.36	0.0707741
2366.77	0.194212
2368.18	0.0272136
2369.58	0.264523
2370.99	0.389587
2372.39	0.370483
2373.8	0.416554
2375.2	0.108749
2376.61	-0.038178
2378.01	0.312751
2379.42	0.372846
2380.82	0.30316
2382.22	0.00807095
2383.63	0.113407
2385.03	0.122323
2386.43	0.251329
2387.84	0.0455475
2389.24	0.407031
2390.64	0.0519309
2392.04	0.0961895
2393.44	0.284315
2394.84	-0.226923
2396.25	0.296113
2397.65	-0.118434
2399.05	0.18265
2400.45	0.150355
2401.85	0.0547571
2403.25	0.45153
2404.65	0.530316
2406.05	0.592523
2407.45	0.146211
2408.84	0.286515
2410.24	0.125253
2411.64	0.344546
2413.04	0.0733075
2414.44	0.404789
2415.83	0.0407004
2417.23	0.295006
2418.63	0.550037
2420.02	-0.160639
2421.42	0.348027
2422.82	0.222891
2424.21	0.0816684
2425.61	0.62185
2427	0.0689955
2428.4	0.420161
2429.8	0.296486
2431.19	0.427092
2432.58	0.303933
2433.98	-0.010304
2435.37	0.246343
2436.77	0.629115
2438.16	0.45465
2439.55	0.168046
2440.95	0.230271
2442.34	0.228555
2443.73	0.401169
2445.12	0.129393
2446.51	0.25409
2447.91	-0.144388
2449.3	0.534604
2450.69	-0.0218229
2452.08	-0.102611
2453.47	0.228594
2454.86	0.212233
2456.25	0.591858
2457.64	0.0700517
2459.03	0.149235
2460.42	0.133094
2461.81	0.321907
2463.2	-0.153806
2464.59	0.223566
2465.98	0.079257
2467.36	0.0612845
2468.75	0.137952
2470.14	0.214404
2471.53	0.637215
2472.92	0.0350699
2474.3	0.235993
2475.69	0.042892
2477.08	-0.244479
2478.46	0.175275
2479.85	-0.237195
2481.23	0.0096426
2482.62	0.146373
2484	0.251223
2485.39	-0.0513926
2486.77	0.0988526
2488.16	0.10752
2489.54	0.458469
2490.93	0.279229
2492.31	0.24073
2493.69	0.00126171
2495.08	0.0734944
2496.46	-0.132484
2497.84	0.26651
2499.23	0.0615005
2500.61	0.150409
2501.99	-0.333211
2503.37	0.0788836
2504.75	-0.18916
2506.13	0.313321
2507.52	0.0911465
2508.9	0.177029
2510.28	0.00196934
2511.66	0.180593
2513.04	0.252162
2514.42	0.416155
2515.8	-0.215323
2517.18	0.439469
2518.55	0.00845194
2519.93	-0.0552487
2521.31	0.308562
2522.69	-0.305383
2524.07	-0.278488
2525.45	0.00696516
2526.82	-0.0736985
2528.2	0.165584
2529.58	0.0251927
2530.95	-0.159489
2532.33	0.143372
2533.71	0.249619
2535.08	0.128507
2536.46	0.12891
2537.84	0.204782
2539.21	0.249553
2540.59	-0.0858831
2541.96	-0.0722694
2543.34	0.0629134
2544.71	-0.0592279
2546.08	0.0470691
2547.46	0.245271
2548.83	0.00419188
2550.2	0.233483
2551.58	0.0830917
2552.95	0.281076
2554.32	-0.386691
2555.7	-0.12938
2557.07	0.0515833
2558.44	-0.0102506
2559.81	0.110056
2561.18	0.0943012
2562.55	0.0487132
2563.93	0.17026
2565.3	0.00420189
2566.67	0.459659
2568.04	0.369645
2569.41	0.0522981
2570.78	-0.0528793
2572.15	0.251225
2573.51	0.206789
2574.88	0.0563064
2576.25	-0.0638466
2577.62	0.164668
2578.99	-0.122488
2580.36	-0.0156584
2581.73	0.0908804
2583.09	-0.0605989
2584.46	-0.0757718
2585.83	0.0454512
2587.19	-0.121231
2588.56	0.242702
2589.93	0.0762663
2591.29	0.0764599
2592.66	-0.0145874
2594.02	-0.0607285
2595.39	0.104437
2596.75	0.0416808
2598.12	0.00867653
2599.48	-0.160627
2600.85	0.0329943
2602.21	-0.180981
2603.58	0.134065
2604.94	0.132397
2606.3	0.191221
2607.67	0.0839033
2609.03	0.262429
2610.39	0.228987
2611.76	0.164505
2613.12	-0.0510774
2614.48	0.0937138
2615.84	-0.152118
2617.2	0.0524321
2618.56	0.0323973
2619.92	0.0429006
2621.28	-0.0507321
2622.65	0.154996
2624.01	0.256108
2625.37	0.148145
2626.72	0.0103283
2628.08	0.0214863
2629.44	0.0175281
2630.8	0.117575
2632.16	-0.0650539
2633.52	-0.0543127
2634.88	-0.162336
2636.24	0.0264058
2637.59	-0.288968
2638.95	0.0772929
2640.31	0.19159
2641.67	-0.108015
2643.02	0.169173
2644.38	0.0918055
2645.74	-0.206786
2647.09	0.113923
2648.45	0.183231
2649.8	0.192957
2651.16	0.172765
2652.51	-0.229436
2653.87	0.0882249
2655.22	0.420494
2656.58	0.123288
2657.93	0.00301218
2659.29	-0.0579453
2660.64	0.0569248
2661.99	0.259275
2663.35	0.212673
2664.7	-0.126389
2666.05	0.0449843
2667.41	-0.134004
2668.76	-0.0797744
2670.11	0.0764284
2671.46	0.0583234
2672.81	0.0407224
2674.16	-0.00543308
2675.51	-0.196251
2676.87	0.0197558
2678.22	-0.0394778
2679.57	-0.0690594
2680.92	-0.010879
2682.27	0.454132
2683.62	-0.109394
2684.97	0.139801
2686.31	-0.263436
2687.66	0.392531
2689.01	0.00269222
2690.36	-0.0109673
2691.71	-0.0839787
2693.06	0.0305896
2694.4	-0.145645
2695.75	0.12746
2697.1	0.168989
2698.45	0.153531
2699.79	0.0669398
2701.14	0.256775
2702.49	0.129151
2703.83	0.0746837
2705.18	0.122048
2706.52	0.22753
2707.87	-0.247519
2709.21	0.0897141
2710.56	0.107453
2711.9	0.328393
2713.25	-0.00280237
2714.59	0.290798
2715.94	0.395524
2717.28	0.0784369
2718.62	0.0665107
2719.97	0.389002
2721.31	0.187364
2722.65	0.247313
2723.99	0.379711
2725.34	0.322575
2726.68	0.308835
2728.02	0.251211
2729.36	0.353507
2730.7	0.237428
2732.04	0.223209
2733.39	0.165434
2734.73	0.078723
2736.07	0.38489
2737.41	0.094842
2738.75	-0.122462
2740.08	-0.223562
2741.43	0.0967078
2742.76	0.0384517
2744.1	0.37212
2745.44	0.00779009
2746.78	-0.356548
2748.12	-0.0675097
2749.46	-0.0688519
2750.79	-0.128052
2752.13	-0.0420337
2753.47	0.0585961
2754.81	-0.0145569
2756.14	-0.000649452
2757.48	0.578085
2758.81	0.201316
2760.15	0.0565882
2761.49	0.216168
2762.82	-0.144828
2764.16	-0.187224
2765.49	0.407001
2766.83	-0.171022
2768.16	0.176198
2769.5	0.0451455
2770.83	-0.0868287
2772.16	-0.00297546
2773.5	0.0800209
2774.83	0.0183268
2776.17	0.0287433
2777.5	-0.248408
2778.83	0.093637
2780.16	0.148165
2781.5	0.0449047
2782.83	-0.0150862
2784.16	-0.118047
2785.49	0.0800977
2786.82	-0.079936
2788.15	0.21866
2789.49	0.00246382
2790.82	-0.0698643
2792.15	-0.127279
2793.48	0.144457
2794.81	0.101694
2796.14	-0.041296
2797.46	-0.14173
2798.79	0.214425
2800.12	0.298813
2801.45	-0.230459
2802.78	-0.0179281
2804.11	0.037456
2805.44	-0.220857
2806.76	0.332024
2808.09	-0.0692439
2809.42	-0.072268
2810.75	0.322369
2812.07	0.163451
2813.4	-0.0086031
2814.73	-0.080204
2816.05	-0.0798593
2817.38	0.332322
2818.7	0.13546
2820.03	0.15122
2821.36	0.20918
2822.68	0.507554
2824.01	-0.172235
2825.33	0.182062
2826.65	0.536225
2827.98	0.352629
2829.3	0.282773
2830.63	0.156662
2831.95	0.313835
2833.27	0.343567
2834.6	0.429686
2835.92	0.37391
2837.24	0.685642
2838.56	0.600833
2839.88	0.501779
2841.21	0.855281
2842.53	0.445656
2843.85	1.22383
2845.17	1.43715
2846.49	1.6227
2847.81	1.46938
2849.13	1.74009
2850.45	1.50174
2851.77	1.54568
2853.09	1.84361
2854.41	2.04224
2855.73	2.15589
2857.05	1.80333
2858.37	2.10064
2859.69	2.03068
2861	2.13004
2862.32	2.37028
2863.64	2.53953
2864.96	2.56738
2866.28	2.48234
2867.59	2.70783
2868.91	3.0746
2870.23	3.03278
2871.54	3.25892
2872.86	3.16062
2874.17	3.24487
2875.49	3.14504
2876.81	3.43856
2878.12	3.40742
2879.44	3.47452
2880.75	3.03581
2882.07	3.31475
2883.38	3.21517
2884.69	3.32709
2886.01	3.45352
2887.32	3.1168
2888.63	3.39725
2889.95	3.5366
2891.26	3.42271
2892.57	3.5887
2893.89	3.99253
2895.2	3.55618
2896.51	3.5688
2897.82	3.77823
2899.13	3.23295
2900.44	3.63976
2901.76	3.85107
2903.07	3.90865
2904.38	4.44192
2905.69	4.1082
2907	4.19459
2908.31	4.1558
2909.62	4.43953
2910.93	4.31802
2912.24	4.96632
2913.55	4.99815
2914.85	4.65068
2916.16	5.19764
2917.47	5.11316
2918.78	5.41955
2920.09	6.04726
2921.4	5.51471
2922.7	5.87823
2924.01	6.11715
2925.32	6.41305
2926.62	5.6891
2927.93	6.04153
2929.24	6.30974
2930.54	6.5774
2931.85	6.39722
2933.15	6.38455
2934.46	6.49762
2935.76	5.93994
2937.07	6.16505
2938.37	5.90122
2939.68	5.83326
2940.98	5.66795
2942.29	5.25185
2943.59	5.42372
2944.89	5.24736
2946.2	5.04395
2947.5	4.79891
2948.8	4.60944
2950.11	4.54485
2951.41	4.74474
2952.71	4.07482
2954.01	4.64987
2955.32	3.85257
2956.62	3.89598
2957.92	4.20699
2959.22	3.94632
2960.52	3.9539
2961.82	3.78093
2963.12	3.95905
2964.42	3.95442
2965.72	3.52712
2967.02	3.64611
2968.32	3.0752
2969.62	3.23455
2970.92	3.39385
2972.22	3.37054
2973.51	3.24897
2974.81	2.87391
2976.11	2.90645
2977.41	3.0365
2978.71	2.84128
2980	2.98251
2981.3	2.5034
2982.6	2.55866
2983.9	2.65627
2985.19	2.36114
2986.49	2.3343
2987.78	1.78869
2989.08	2.41014
2990.38	2.13242
2991.67	1.88235
2992.97	1.70171
2994.26	1.71681
2995.56	1.52029
2996.85	1.562
2998.14	1.70168
2999.44	1.5328
3000.73	1.32236
3002.03	1.37879
3003.32	1.15522
3004.61	1.33805
3005.91	0.932356
3007.2	1.04439
3008.49	0.973755
3009.78	1.00035
3011.07	0.71891
3012.37	0.772589
3013.66	0.644775
3014.95	0.991368
3016.24	0.683218
3017.53	0.515186
3018.82	0.751191
3020.11	0.708803
3021.4	0.638278
3022.69	0.46994
3023.98	0.60639
3025.27	0.561737
3026.56	0.600049
3027.85	0.597065
3029.14	0.525736
3030.43	0.704257
3031.71	0.137903
3033	0.387201
3034.29	0.457094
3035.58	0.471303
3036.87	0.705065
3038.15	0.661552
3039.44	0.602858
3040.73	0.405596
3042.01	0.606138
3043.3	0.573004
3044.59	0.622664
3045.87	0.358917
3047.16	0.50703
3048.44	0.301645
3049.73	0.275345
3051.01	0.5367
3052.3	0.566578
3053.58	0.746484
3054.87	0.666576
3056.15	0.599472
3057.43	0.735993
3058.72	0.749061
3060	0.666516
3061.29	0.47541
3062.57	0.965199
3063.85	0.476655
3065.13	0.84588
3066.42	0.563521
3067.7	0.349782
3068.98	0.734555
3070.26	0.833529
3071.54	0.346926
3072.82	0.525758
3074.11	0.485968
3075.39	0.59488
3076.67	0.241616
3077.95	0.404705
3079.23	0.269866
3080.51	0.24463
3081.79	0.410361
3083.07	0.115694
3084.35	0.228418
3085.63	0.314
3086.9	0.263457
3088.18	0.185151
3089.46	0.0519714
3090.74	0.230507
3092.02	0.273107
3093.29	0.207192
3094.57	0.00581694
3095.85	0.170696
3097.13	0.0101366
3098.4	-0.0420761
3099.68	0.068141
3100.95	0.056222
3102.23	0.125504
3103.51	0.0594573
3104.78	0.196739
3106.06	0.185536
3107.33	0.499686
3108.61	-0.227554
3109.88	0.115003
3111.16	0.0250506
3112.43	0.125118
3113.71	-0.153959
3114.98	0.081769
3116.25	0.181612
3117.53	0.0637541
3118.8	-0.000770092
3120.07	0.015183
3121.35	-0.105224
3122.62	0.0720606
3123.89	0.0863824
3125.16	0.0059185
3126.44	0.0610604
3127.71	-0.113555
3128.98	-0.17961
3130.25	-0.177896
3131.52	0.229274
3132.79	0.122482
3134.06	0.0153661
3135.33	0.272327
3136.6	0.31257
3137.87	0.109555
3139.14	-0.0531616
3140.41	0.147523
3141.68	0.347763
3142.95	0.158073
3144.22	0.130006
3145.49	-0.0050354
3146.76	0.0749412
3148.02	-0.126189
3149.29	-0.0991931
