200.398	0.27172
202.213	0.316527
204.027	0.362369
205.843	0.335968
207.657	0.187967
209.47	0.525273
211.283	0.73932
213.097	0.490247
214.909	0.458248
216.721	0.546525
218.533	0.0531282
220.344	0.601469
222.157	0.20647
223.967	0.102612
225.777	0.216641
227.587	0.016325
229.396	0.322579
231.205	-0.0963774
233.016	-0.0812922
234.824	1.06707
236.632	-0.146713
238.439	0.112025
240.247	0.565814
242.053	-0.0631723
243.86	-0.30561
245.666	0.271987
247.474	-0.310591
249.279	0.16608
251.085	0.156463
252.889	0.0230989
254.694	-0.0880804
256.498	-0.199878
258.301	0.628785
260.105	0.30185
261.908	0.169441
263.71	0.279366
265.513	-0.0194664
267.315	-0.125515
269.116	0.539221
270.918	-0.363979
272.718	-0.786505
274.519	0.380675
276.319	0.219917
278.119	-0.0392056
279.918	0.109169
281.718	0.182927
283.516	0.182361
285.315	-0.204269
287.113	0.488955
288.911	0.413257
290.708	-0.116924
292.505	0.144714
294.302	0.526891
296.098	0.00139999
297.894	0.672205
299.69	0.124385
301.485	0.316984
303.278	0.22191
305.073	0.531254
306.867	0.290548
308.661	-0.188716
310.454	0.428813
312.247	0.689518
314.04	-0.167627
315.833	0.405644
317.623	-0.329295
319.415	-0.0151262
321.206	0.276374
322.997	-0.0274277
324.788	0.217467
326.579	0.41484
328.367	0.731484
330.156	0.593511
331.946	0.167049
333.735	0.575845
335.523	0.839007
337.31	-0.144599
339.098	0.975227
340.885	0.609904
342.673	0.459012
344.458	0.0451641
346.244	0.13354
348.03	0.652164
349.816	1.05153
351.6	0.114017
353.385	0.60802
355.17	0.408812
356.953	0.923638
358.737	0.554761
360.521	0.732789
362.304	0.481157
364.085	0.276584
365.868	0.285357
367.65	0.767951
369.431	0.0630293
371.212	0.779831
372.994	0.429535
374.773	0.457659
376.554	0.580071
378.332	0.726172
380.112	0.118905
381.892	0.290458
383.669	0.0394554
385.448	-0.0455837
387.225	0.528409
389.003	0.210313
390.781	0.597795
392.557	0.422224
394.334	0.176726
396.109	0.565553
397.885	0.273336
399.66	0.779386
401.436	0.627306
403.211	0.122205
404.984	0.062582
406.759	-0.209146
408.532	0.997669
410.306	0.0440588
412.078	0.545786
413.851	0.719143
415.623	0.58803
417.395	0.551475
419.166	0.562379
420.938	0.36224
422.708	0.443419
424.477	-0.462109
426.248	0.0869446
428.017	0.705529
429.788	0.149828
431.556	0.13392
433.326	0.141686
435.093	0.595599
436.86	0.321877
438.629	0.352564
440.395	1.10924
442.163	0.010396
443.929	0.551539
445.694	0.363913
447.461	-0.0587082
449.226	0.80503
450.99	0.545784
452.756	0.217188
454.52	0.145867
456.285	0.540729
458.048	0.212817
459.811	0.09484
461.573	0.0240717
463.337	0.582237
465.099	0.35216
466.86	-0.107601
468.623	-0.00730038
470.384	0.211045
472.144	0.197511
473.906	0.485952
475.666	1.05243
477.425	1.17438
479.184	0.595541
480.944	0.0390148
482.703	0.390944
484.461	0.86033
486.218	0.120271
487.975	0.896602
489.734	0.0898361
491.491	0.286511
493.247	0.0869265
495.003	0.144379
496.759	1.53608
498.516	0.469954
500.271	0.667739
502.025	0.489692
503.779	0.94466
505.533	0.811531
507.287	0.606333
509.042	0.634692
510.795	0.567369
512.547	0.451417
514.299	0.734016
516.051	0.4741
517.803	0.542379
519.554	0.915212
521.305	0.840493
523.055	0.577464
524.805	0.666537
526.555	0.0986071
528.307	0.938066
530.056	0.487632
531.805	0.388604
533.553	0.827299
535.301	0.796435
537.049	0.320199
538.797	0.497221
540.544	0.509465
542.291	-0.0148726
544.037	0.0665426
545.783	0.426531
547.529	0.414446
549.275	0.170773
551.02	0.854095
552.765	-0.406964
554.509	0.437551
556.253	0.17254
557.997	0.138997
559.738	0.267237
561.482	0.0964794
563.224	-0.44152
564.967	-0.380609
566.709	-0.204392
568.451	0.224837
570.192	0.103843
571.933	0.649476
573.674	-0.156934
575.415	-0.204706
577.153	-0.526381
578.893	-0.112551
580.632	0.256414
582.371	0.097352
584.11	0.558378
585.849	0.328877
587.587	0.374097
589.323	-0.47909
591.06	0.576399
592.797	0.481003
594.534	0.109355
596.271	0.312913
598.005	0.378399
599.741	-0.154602
601.476	-0.389212
603.211	-0.118876
604.944	0.195971
606.679	0.555259
608.413	0.66073
610.147	0.00853157
611.878	-0.29844
613.611	-0.558583
615.344	-0.428309
617.077	0.641381
618.807	0.862442
620.539	0.00639534
622.27	0.682878
623.999	0.511784
625.73	0.0438967
627.461	0.0341396
629.189	0.642333
630.919	0.316931
632.648	0.290149
634.376	0.583941
636.105	0.306904
637.833	0.393507
639.559	0.523223
641.287	0.376285
643.013	0.774179
644.74	0.441477
646.467	0.0868607
648.192	0.530091
649.918	0.793991
651.642	0.198098
653.368	0.242056
655.091	0.607653
656.816	0.748442
658.538	1.00448
660.263	0.165485
661.987	-0.0599098
663.708	0.626408
665.432	1.08252
667.153	0.805213
668.875	0.526999
670.596	0.363639
672.318	0.362174
674.037	0.248491
675.759	-0.207155
677.478	0.461714
679.196	0.236427
680.917	0.607547
682.635	0.448466
684.355	0.908692
686.072	0.814694
687.791	0.258436
689.508	0.000442505
691.224	0.524947
692.942	0.357823
694.658	-0.0172501
696.376	0.597095
698.091	0.795639
699.805	0.877767
701.522	0.406705
703.236	0.578852
704.95	0.841955
706.665	0.966446
708.379	0.425312
710.093	1.1449
711.806	1.47375
713.518	0.932497
715.23	0.803365
716.943	1.08537
718.655	0.956366
720.366	1.03288
722.078	1.70149
723.788	1.29965
725.498	1.39853
727.208	1.20167
728.919	1.34513
730.628	0.966443
732.337	1.06374
734.045	0.889135
735.755	0.805312
737.463	1.03814
739.17	1.24862
740.877	1.12157
742.584	1.55905
744.292	1.50205
745.998	1.109
747.704	1.68498
749.409	0.822515
751.114	1.46843
752.819	1.28342
754.526	1.48218
756.23	0.939878
757.934	1.63698
759.637	1.52528
761.34	1.25677
763.043	1.4848
764.746	1.19363
766.448	1.44327
768.152	1.80444
769.853	1.84713
771.554	1.59375
773.255	1.06756
774.956	1.85239
776.656	2.61503
778.356	1.90931
780.056	1.83821
781.755	2.40172
783.454	2.58108
785.153	2.08032
786.851	1.41861
788.549	2.11191
790.247	1.85125
791.944	1.72378
793.641	2.36259
795.338	1.84935
797.034	1.45063
798.73	1.48205
800.426	1.51521
802.121	1.84224
803.817	1.62997
805.511	1.48521
807.206	2.41834
808.9	1.12605
810.592	2.14576
812.286	1.61573
813.979	2.18385
815.672	1.6538
817.364	1.97457
819.057	1.7585
820.748	1.98956
822.44	2.53302
824.129	2.47447
825.82	1.83809
827.511	1.62769
829.201	1.84322
830.891	1.95042
832.581	2.41703
834.269	1.57115
835.958	2.30899
837.646	1.23985
839.335	2.20039
841.023	2.08796
842.709	1.16977
844.396	2.01603
846.084	1.76806
847.77	1.83472
849.455	2.28422
851.141	1.32633
852.827	1.75825
854.513	1.65356
856.196	1.2116
857.881	1.93686
859.566	1.44664
861.248	1.65194
862.932	1.69814
864.616	1.49518
866.297	1.74203
867.98	1.22168
869.663	1.44493
871.343	1.82584
873.026	0.9884
874.707	1.54959
876.387	1.59192
878.068	1.67941
879.747	1.11223
881.428	0.905787
883.108	0.721233
884.786	1.86756
886.465	1.47742
888.143	1.13107
889.822	2.02376
891.498	1.17857
893.177	1.36915
894.855	1.40074
896.53	1.0041
898.208	0.854291
899.883	1.15256
901.56	1.35972
903.234	0.782614
904.91	0.988955
906.584	1.46287
908.26	0.955256
909.933	1.11776
911.608	0.969328
913.28	0.777442
914.955	0.564055
916.627	0.839188
918.298	0.670494
919.972	1.10003
921.643	0.622314
923.315	1.53902
924.986	1.37363
926.656	1.0557
928.328	1.29149
929.997	1.66081
931.668	1.17024
933.337	0.94484
935.006	1.6902
936.676	0.8699
938.344	1.59433
940.012	1.30546
941.681	0.951536
943.348	0.708534
945.014	0.531533
946.683	0.728717
948.349	0.902148
950.015	1.05164
951.682	0.913006
953.347	1.83312
955.012	1.43127
956.676	0.326563
958.343	0.415587
960.006	1.3902
961.67	0.379768
963.333	0.694095
964.998	0.255326
966.661	0.63236
968.323	0.409506
969.985	1.29085
971.649	0.755372
973.31	0.817594
974.971	0.660026
976.632	0.194545
978.293	0.747885
979.953	0.627295
981.615	0.506318
983.274	0.660788
984.933	0.92414
986.592	0.609963
988.251	0.847358
989.909	0.773726
991.567	0.566918
993.225	0.470614
994.884	1.08088
996.541	1.88913
998.198	2.60824
999.855	2.73128
1001.51	2.58946
1003.17	1.21494
1004.82	1.75526
1006.48	0.844276
1008.13	1.38406
1009.79	0.9798
1011.44	0.839679
1013.1	1.00702
1014.75	0.8241
1016.4	0.160161
1018.06	0.810239
1019.71	0.0826054
1021.36	0.34035
1023.01	0.577126
1024.66	0.618054
1026.32	1.27142
1027.97	1.07255
1029.62	1.00422
1031.27	1.13129
1032.92	0.383455
1034.57	0.180268
1036.22	0.0196772
1037.87	0.838887
1039.52	0.372387
1041.16	0.581502
1042.81	0.422025
1044.46	0.416459
1046.11	0.0434914
1047.76	0.193646
1049.4	0.236737
1051.05	0.997801
1052.7	0.347843
1054.34	0.241225
1055.99	0.395392
1057.63	0.83198
1059.28	0.137656
1060.92	-0.0138102
1062.57	0.355885
1064.21	0.39856
1065.85	0.0489359
1067.5	0.45915
1069.14	-0.28329
1070.78	0.364124
1072.43	0.207685
1074.07	0.24709
1075.71	0.352491
1077.35	-0.061389
1078.99	0.284966
1080.63	0.0682364
1082.27	0.198493
1083.91	0.197867
1085.55	0.282481
1087.19	0.300143
1088.83	0.987109
1090.47	0.329859
1092.11	0.407555
1093.75	0.527804
1095.39	0.583238
1097.03	0.704022
1098.66	0.869022
1100.3	0.389695
1101.94	0.343057
1103.57	0.298148
1105.21	0.31906
1106.84	1.48046
1108.48	0.318781
1110.11	0.253029
1111.75	-0.566381
1113.38	0.589832
1115.02	0.391009
1116.65	-0.044117
1118.29	-0.242746
1119.92	0.116521
1121.55	0.0908689
1123.19	0.408682
1124.82	0.277903
1126.45	0.490262
1128.08	0.553587
1129.71	0.318251
1131.34	0.66077
1132.97	0.255329
1134.6	-0.299774
1136.23	-0.40646
1137.86	0.362051
1139.49	-0.21669
1141.12	-0.219427
1142.75	0.396192
1144.38	-0.183079
1146.01	0.155512
1147.64	-0.20853
1149.26	-0.188046
1150.89	-0.0393066
1152.52	0.151989
1154.15	0.236435
1155.77	0.171475
1157.4	-0.0212212
1159.02	0.275723
1160.65	0.0416889
1162.27	0.319067
1163.9	0.682423
1165.52	-0.0167904
1167.15	0.538241
1168.77	0.390647
1170.39	0.411551
1172.02	0.133161
1173.64	0.447883
1175.26	-0.618069
1176.89	0.331045
1178.51	-0.0768375
1180.13	-0.33531
1181.75	-0.000317574
1183.37	0.292626
1184.99	0.395144
1186.61	-0.0523329
1188.23	0.132348
1189.85	0.272709
1191.47	0.158315
1193.09	0.168915
1194.71	0.0527277
1196.33	0.502956
1197.94	0.324677
1199.56	0.0439091
1201.18	0.455419
1202.8	0.492989
1204.41	1.2635
1206.03	0.449996
1207.65	0.743811
1209.26	0.871003
1210.88	0.913981
1212.49	0.767633
1214.11	1.11935
1215.72	0.572979
1217.34	0.961878
1218.95	0.476151
1220.57	0.842425
1222.18	1.29157
1223.79	0.642954
1225.41	0.825074
1227.02	1.04985
1228.63	1.93768
1230.24	1.79235
1231.85	0.821576
1233.47	1.7125
1235.08	1.83989
1236.69	1.6999
1238.3	1.85039
1239.91	1.27795
1241.52	1.61552
1243.13	1.35297
1244.74	1.37924
1246.34	1.75627
1247.95	1.34595
1249.56	2.01079
1251.17	1.62006
1252.78	1.76746
1254.38	1.19164
1255.99	1.6925
1257.6	1.01556
1259.2	1.66384
1260.81	1.60965
1262.42	1.86656
1264.02	1.44011
1265.63	1.44814
1267.23	2.01509
1268.84	1.15081
1270.44	1.44637
1272.04	0.74567
1273.65	1.53676
1275.25	1.14511
1276.85	1.54018
1278.46	1.54057
1280.06	1.89233
1281.66	1.00166
1283.26	1.62207
1284.86	1.39465
1286.46	1.16828
1288.07	1.3151
1289.67	1.02883
1291.27	1.98295
1292.87	1.82112
1294.47	1.6586
1296.06	1.88725
1297.66	1.72185
1299.26	1.71996
1300.86	1.73713
1302.46	1.75298
1304.06	1.54144
1305.65	1.78188
1307.25	2.4115
1308.85	2.11627
1310.44	1.59623
1312.04	2.36743
1313.64	1.5426
1315.23	1.94637
1316.83	1.77877
1318.42	2.55054
1320.02	2.52598
1321.61	2.01163
1323.2	2.10713
1324.8	2.22092
1326.39	2.47503
1327.99	1.65331
1329.58	2.04914
1331.17	1.94002
1332.76	2.11633
1334.36	1.91111
1335.95	2.17203
1337.54	1.88875
1339.13	1.66563
1340.72	1.90444
1342.31	2.6236
1343.9	2.09286
1345.49	2.36518
1347.08	2.01529
1348.67	1.90831
1350.26	1.90416
1351.85	1.34268
1353.43	1.46362
1355.02	1.70575
1356.61	1.76834
1358.2	1.83049
1359.78	1.49226
1361.37	0.953646
1362.96	1.41218
1364.54	1.5309
1366.13	1.311
1367.71	1.15186
1369.3	1.33247
1370.88	1.73327
1372.47	1.31954
1374.05	0.986606
1375.64	1.1916
1377.22	1.01866
1378.8	1.40242
1380.39	0.909685
1381.97	1.54975
1383.55	1.17396
1385.13	0.777596
1386.72	1.53345
1388.3	1.05754
1389.88	0.820881
1391.46	0.843222
1393.04	0.886162
1394.62	0.651809
1396.2	0.695025
1397.78	0.836695
1399.36	0.224354
1400.94	1.03769
1402.52	1.27556
1404.1	1.07788
1405.68	0.979775
1407.25	1.53485
1408.83	0.391153
1410.41	0.453591
1411.98	0.555477
1413.56	0.202765
1415.14	0.737434
1416.71	0.935538
1418.29	0.916233
1419.87	0.897238
1421.44	0.918643
1423.02	1.31554
1424.59	1.1628
1426.16	0.952307
1427.74	0.939185
1429.31	1.4376
1430.89	1.5218
1432.46	1.95904
1434.03	2.02129
1435.6	1.39468
1437.18	2.16457
1438.75	1.5392
1440.32	2.01567
1441.89	1.96243
1443.46	2.51919
1445.03	3.01745
1446.6	3.00494
1448.17	1.87214
1449.74	2.52842
1451.31	2.45787
1452.88	2.68286
1454.45	2.61331
1456.02	2.20921
1457.59	2.47343
1459.16	1.94916
1460.72	1.79707
1462.29	1.80055
1463.86	1.82203
1465.43	1.99961
1466.99	1.21405
1468.56	1.48988
1470.13	1.27569
1471.69	1.29817
1473.26	1.26286
1474.82	1.20872
1476.38	0.762886
1477.95	1.21909
1479.51	1.3615
1481.08	1.05299
1482.64	0.685689
1484.2	0.925801
1485.77	1.08715
1487.33	0.640585
1488.89	0.310591
1490.46	0.468452
1492.02	1.13248
1493.58	0.484571
1495.14	0.24611
1496.7	0.961998
1498.26	0.294168
1499.82	0.503113
1501.38	-0.0251789
1502.94	0.360209
1504.5	-0.0293484
1506.06	0.608043
1507.62	0.624846
1509.18	0.0611153
1510.73	0.501051
1512.29	0.572941
1513.85	0.201616
1515.41	0.292718
1516.96	0.403334
1518.52	-0.15679
1520.08	0.83649
1521.63	0.20136
1523.19	0.389255
1524.75	0.232385
1526.3	0.647049
1527.85	0.526603
1529.41	0.386952
1530.96	0.513503
1532.52	0.564303
1534.07	0.312795
1535.62	0.611372
1537.18	0.570059
1538.73	1.03913
1540.28	0.640229
1541.84	0.675508
1543.39	0.315416
1544.94	1.34719
1546.49	1.09947
1548.04	0.87086
1549.59	1.01757
1551.14	0.845835
1552.69	0.637501
1554.25	1.25277
1555.79	1.28941
1557.34	1.01039
1558.89	1.18128
1560.44	1.26063
1561.99	0.875154
1563.54	0.994431
1565.08	1.00234
1566.63	1.19699
1568.18	1.8954
1569.73	1.92162
1571.27	1.61145
1572.82	1.82365
1574.37	2.09172
1575.91	1.78111
1577.46	2.16142
1579	1.60871
1580.55	2.0461
1582.09	1.90548
1583.64	2.04586
1585.18	2.31791
1586.73	1.41284
1588.27	1.57329
1589.81	2.03306
1591.35	1.48195
1592.9	2.20329
1594.44	1.80095
1595.98	2.20403
1597.52	1.97055
1599.06	2.03754
1600.61	2.46172
1602.15	2.28622
1603.69	1.50964
1605.23	2.38491
1606.77	2.18829
1608.31	1.89565
1609.85	2.05179
1611.39	1.62309
1612.93	1.53086
1614.46	1.49377
1616	1.79389
1617.54	1.81289
1619.08	1.43955
1620.61	1.06794
1622.15	1.82124
1623.69	1.63904
1625.23	1.38207
1626.76	1.53624
1628.3	1.85749
1629.83	1.48522
1631.37	1.93467
1632.9	2.12167
1634.44	1.61804
1635.97	2.02994
1637.51	2.61024
1639.04	1.82979
1640.57	2.78319
1642.11	2.44982
1643.64	2.24598
1645.17	2.20863
1646.71	2.95142
1648.24	2.61503
1649.77	2.16808
1651.3	2.63197
1652.83	2.59585
1654.36	2.56094
1655.89	2.74915
1657.42	2.6778
1658.96	2.86502
1660.48	2.77305
1662.01	2.56866
1663.54	2.93642
1665.07	2.97049
1666.6	2.93103
1668.13	2.89275
1669.66	2.26625
1671.19	2.6368
1672.71	2.52935
1674.24	2.2383
1675.77	2.90455
1677.29	1.85797
1678.82	2.02531
1680.35	2.00759
1681.87	1.86049
1683.4	1.82342
1684.92	1.38273
1686.45	1.56645
1687.97	1.89701
1689.5	1.60475
1691.02	1.31304
1692.54	1.3694
1694.07	1.29762
1695.59	1.29888
1697.11	0.788278
1698.64	0.533609
1700.16	0.589128
1701.68	0.881216
1703.2	0.643864
1704.72	0.479219
1706.25	0.78752
1707.77	0.622364
1709.29	0.275777
1710.81	0.220221
1712.33	0.654489
1713.85	0.852646
1715.37	0.579859
1716.89	0.687318
1718.41	0.342651
1719.92	0.486059
1721.44	0.466981
1722.96	0.159939
1724.48	-0.00170422
1725.99	0.432148
1727.51	0.326733
1729.03	0.222231
1730.55	0.0643311
1732.06	0.56434
1733.58	0.56319
1735.09	0.255604
1736.61	-0.0745168
1738.13	-0.335373
1739.64	0.249843
1741.15	0.0365124
1742.67	0.395129
1744.18	0.596655
1745.7	0.317846
1747.21	0.391157
1748.72	0.597932
1750.24	0.152328
1751.75	-0.203522
1753.26	0.11253
1754.77	0.327394
1756.29	0.0908332
1757.8	0.00981522
1759.31	0.421917
1760.82	-0.0709047
1762.33	-0.0544019
1763.84	0.101143
1765.35	0.0337324
1766.86	0.182747
1768.37	0.0705724
1769.88	0.0628119
1771.39	-0.13763
1772.9	0.181729
1774.4	0.104459
1775.91	-0.0164909
1777.42	0.173769
1778.93	-0.0874615
1780.44	0.313885
1781.94	0.0438185
1783.45	-0.115652
1784.96	-0.0237365
1786.46	-0.0145736
1787.97	0.134111
1789.47	0.188773
1790.98	0.14419
1792.48	-0.125681
1793.99	0.164135
1795.49	0.165378
1797	0.148439
1798.5	0.368159
1800.01	-0.119967
1801.51	-0.073267
1803.01	0.265045
1804.51	0.00293207
1806.02	0.0393438
1807.52	-0.094872
1809.02	-0.0055027
1810.52	-0.161324
1812.02	-0.058784
1813.52	-0.303234
1815.02	0.113212
1816.53	-0.263298
1818.03	-0.0771766
1819.52	0.110456
1821.02	0.0749063
1822.52	-0.0551171
1824.02	-0.046752
1825.52	-0.255403
1827.02	0.0332494
1828.52	0.191438
1830.02	0.19278
1831.51	0.0519314
1833.01	0.15076
1834.51	-0.0819902
1836.01	0.237396
1837.5	0.341474
1839	0.105746
1840.49	-0.0302753
1841.99	0.0548015
1843.49	0.0718002
1844.98	0.046618
1846.48	0.169333
1847.97	0.172938
1849.47	0.0317411
1850.96	0.0665922
1852.45	0.0528111
1853.95	0.0780416
1855.44	0.212523
1856.93	0.424977
1858.42	0.413722
1859.92	0.139131
1861.41	0.138506
1862.9	0.0275702
1864.39	0.151794
1865.88	0.135583
1867.38	0.23271
1868.87	0.0342684
1870.36	-0.120367
1871.85	0.126215
1873.34	-0.14679
1874.83	0.192698
1876.32	-0.00322533
1877.81	0.0180078
1879.29	0.0559821
1880.78	0.157014
1882.27	0.134412
1882.53	0.124815
1884.03	-0.27437
1885.52	-0.116276
1887.01	-0.0635371
1888.51	-0.429048
1890	-0.0632987
1891.5	0.0246387
1892.99	0.235528
1894.48	0.326178
1895.97	0.157317
1897.47	0.249964
1898.96	0.255558
1900.45	-0.000667572
1901.94	0.507174
1903.43	0.0915809
1904.92	-0.377068
1906.41	0.439798
1907.9	0.283336
1909.39	0.561459
1910.88	-0.114148
1912.37	-0.0600715
1913.86	0.254577
1915.35	0.0662999
1916.84	0.345904
1918.33	0.22627
1919.81	0.279586
1921.3	0.575269
1922.79	0.282382
1924.28	-0.00964022
1925.76	0.322528
1927.25	0.101585
1928.73	0.504441
1930.22	0.509067
1931.71	0.30518
1933.19	0.203972
1934.68	0.326354
1936.16	0.222303
1937.65	0.134662
1939.13	0.0640244
1940.62	0.339052
1942.1	-0.0758448
1943.58	0.528248
1945.07	0.287642
1946.55	0.288836
1948.03	0.307056
1949.51	0.0834575
1951	0.324116
1952.48	0.25399
1953.96	0.183467
1955.44	-0.0245018
1956.92	0.454998
1958.4	0.556912
1959.88	0.213332
1961.36	0.316323
1962.84	0.00802279
1964.32	0.367992
1965.8	0.0422187
1967.28	0.315243
1968.76	0.211086
1970.24	0.243308
1971.72	0.668098
1973.2	0.221754
1974.67	0.0319529
1976.15	0.524303
1977.63	0.437015
1979.1	0.0946012
1980.58	0.518045
1982.06	0.0398531
1983.54	0.326447
1985.01	0.0691867
1986.49	0.168263
1987.96	0.368837
1989.44	0.0105376
1990.91	0.414789
1992.39	0.108969
1993.86	0.666433
1995.33	0.497476
1996.81	0.633078
1998.28	0.261897
1999.75	0.59965
2001.23	0.27848
2002.7	0.361978
2004.17	0.32726
2005.65	0.461339
2007.12	0.259052
2008.59	0.276564
2010.06	0.227422
2011.53	0.431214
2013	0.517163
2014.47	0.383941
2015.94	0.519303
2017.41	0.132436
2018.88	0.43443
2020.35	0.164395
2021.82	0.331131
2023.29	0.497958
2024.76	0.329722
2026.23	0.58191
2027.69	0.332051
2029.16	0.452431
2030.63	0.0706496
2032.1	0.226439
2033.56	0.114101
2035.03	0.0352468
2036.5	0.711959
2037.96	0.195561
2039.43	0.38447
2040.89	0.607011
2042.36	0.493677
2043.83	0.464985
2045.29	0.689426
2046.75	0.443297
2048.22	0.298218
2049.68	0.371806
2051.15	0.444603
2052.61	0.212584
2054.07	0.636756
2055.54	0.401734
2057	0.317386
2058.46	0.215577
2059.92	0.922201
2061.39	0.247957
2062.85	0.887741
2064.31	0.33319
2065.77	0.621012
2067.23	0.48879
2068.69	0.710475
2070.15	0.663134
2071.61	0.312774
2073.07	0.0800529
2074.53	0.40275
2075.99	0.42208
2077.45	0.407413
2078.91	0.577641
2080.37	0.326488
2081.82	0.3443
2083.28	0.395213
2084.74	0.2772
2086.2	0.225942
2087.65	0.40961
2089.11	0.424694
2090.57	0.338796
2092.02	0.353637
2093.48	0.469046
2094.94	0.718266
2096.39	0.262843
2097.85	0.527644
2099.3	0.255984
2100.76	0.837324
2102.21	0.4989
2103.66	-0.0554533
2105.12	0.44327
2106.57	0.642354
2108.03	0.508599
2109.48	0.34182
2110.93	0.541419
2112.38	0.589807
2113.84	0.253719
2115.29	0.482552
2116.74	0.394391
2118.19	0.306622
2119.64	0.518802
2121.09	0.748867
2122.54	0.151118
2123.99	0.649179
2125.45	0.766284
2126.89	1.03235
2128.34	0.634403
2129.79	1.0309
2131.24	-0.0646491
2132.69	0.4625
2134.14	0.873194
2135.59	0.672321
2137.04	0.737264
2138.48	0.853262
2139.93	0.921231
2141.38	0.693027
2142.83	0.796373
2144.27	0.734886
2145.72	0.524486
2147.17	0.992497
2148.61	0.94686
2150.06	0.999852
2151.5	1.33368
2152.95	0.970766
2154.39	0.69
2155.84	0.939023
2157.28	1.02239
2158.73	0.857865
2160.17	0.976026
2161.61	0.979672
2163.06	1.10089
2164.5	0.709222
2165.94	0.948565
2167.38	1.47061
2168.83	0.978307
2170.27	1.16591
2171.71	1.25201
2173.15	1.28655
2174.59	0.804244
2176.03	0.986816
2177.47	0.95332
2178.91	1.18645
2180.36	1.02136
2181.8	1.42229
2183.23	1.17525
2184.67	1.31091
2186.11	0.797868
2187.55	1.14987
2188.99	0.936178
2190.43	1.00535
2191.87	0.791289
2193.3	1.0927
2194.74	1.1599
2196.18	1.04243
2197.62	1.17291
2199.05	1.11887
2200.49	0.848013
2201.93	0.975866
2203.36	0.855207
2204.8	1.33251
2206.23	0.666644
2207.67	0.415938
2209.1	0.711741
2210.54	0.609394
2211.97	0.506343
2213.41	0.617688
2214.84	0.67921
2216.27	0.757622
2217.71	0.638893
2219.14	1.16441
2220.57	0.833021
2222.01	0.76562
2223.44	0.499965
2224.87	0.710943
2226.3	0.953145
2227.73	0.881169
2229.16	0.693262
2230.6	0.341047
2232.03	0.513795
2233.46	0.62089
2234.89	0.36863
2236.32	0.330144
2237.75	0.635785
2239.18	0.355189
2240.61	0.565751
2242.03	0.288387
2243.46	0.419765
2244.89	0.0947104
2246.32	0.617303
2247.75	0.79601
2249.17	0.451135
2250.6	-0.106961
2252.03	0.0994768
2253.46	0.646372
2254.88	0.363899
2256.31	0.196681
2257.73	0.24244
2259.16	0.728425
2260.59	0.5029
2262.01	0.36039
2263.44	0.819935
2264.86	0.321444
2266.29	0.537525
2267.71	0.379003
2269.14	0.577626
2270.56	0.205943
2271.98	0.647799
2273.4	0.40567
2274.83	0.310103
2276.25	-0.0623574
2277.67	0.526709
2279.09	0.64336
2280.52	0.645865
2281.94	0.126307
2283.36	0.715816
2284.78	0.261239
2286.2	0.361574
2287.62	0.674516
2289.04	0.22034
2290.46	0.141955
2291.88	-0.00167465
2293.3	0.132679
2294.72	0.414381
2296.14	0.401613
2297.56	0.192273
2298.98	0.474262
2300.4	0.592746
2301.82	0.30162
2303.23	0.256516
2304.65	0.523365
2306.07	0.379837
2307.49	0.367327
2308.9	0.140656
2310.32	0.472436
2311.73	0.425767
2313.15	0.28031
2314.57	0.332589
2315.98	0.0232224
2317.4	0.191942
2318.81	0.344707
2320.23	0.414974
2321.64	0.368894
2323.06	0.0736876
2324.47	0.568758
2325.88	0.302848
2327.3	0.810813
2328.71	0.592432
2330.12	0.522688
2331.54	0.108007
2332.95	0.155349
2334.36	0.203334
2335.77	0.218581
2337.18	0.00320387
2338.6	0.263959
2340.01	0.194916
2341.42	0.322241
2342.83	0.432568
2344.24	0.378713
2345.65	0.275983
2347.06	0.288253
2348.47	0.0713568
2349.88	0.0997953
2351.29	0.241994
2352.7	0.187171
2354.1	0.490653
2355.51	0.0268521
2356.92	0.426705
2358.33	0.110024
2359.74	0.346516
2361.14	-0.0179396
2362.55	0.23444
2363.96	0.469988
2365.36	0.203463
2366.77	0.131573
2368.18	0.286331
2369.58	0.102884
2370.99	0.114213
2372.39	-0.00230789
2373.8	0.0753088
2375.2	0.281929
2376.61	0.166275
2378.01	-0.0144515
2379.42	-0.147947
2380.82	0.102747
2382.22	0.095232
2383.63	0.0710044
2385.03	0.0626221
2386.43	0.214345
2387.84	0.286641
2389.24	0.407587
2390.64	-0.203456
2392.04	-0.144055
2393.44	0.250187
2394.84	0.0403442
2396.25	0.196886
2397.65	-0.0275989
2399.05	0.161604
2400.45	-0.220774
2401.85	0.191394
2403.25	0.190559
2404.65	-0.00111818
2406.05	0.155832
2407.45	0.153248
2408.84	0.276904
2410.24	0.178241
2411.64	-0.1261
2413.04	0.0297194
2414.44	-0.225197
2415.83	-0.193947
2417.23	0.170786
2418.63	0.71051
2420.02	0.205481
2421.42	0.286251
2422.82	0.271703
2424.21	0.130166
2425.61	0.337267
2427	0.529009
2428.4	-0.0235476
2429.8	0.185551
2431.19	0.395391
2432.58	0.351559
2433.98	0.57725
2435.37	0.261999
2436.77	0.437944
2438.16	0.0406613
2439.55	0.246061
2440.95	0.101252
2442.34	0.432327
2443.73	0.20753
2445.12	0.173108
2446.51	0.170297
2447.91	0.199069
2449.3	-0.088994
2450.69	0.430871
2452.08	-0.157151
2453.47	0.0627866
2454.86	0.204213
2456.25	0.0297966
2457.64	0.314381
2459.03	0.0294018
2460.42	0.455672
2461.81	0.122192
2463.2	0.13598
2464.59	0.0702882
2465.98	0.0517864
2467.36	-0.298265
2468.75	0.15664
2470.14	0.058991
2471.53	0.134463
2472.92	0.0517673
2474.3	-0.141631
2475.69	0.0422654
2477.08	0.13127
2478.46	0.0944543
2479.85	0.136292
2481.23	0.0841265
2482.62	-0.109017
2484	-0.0360985
2485.39	0.161112
2486.77	0.185151
2488.16	-0.135052
2489.54	-0.0810299
2490.93	-0.120647
2492.31	-0.0198512
2493.69	0.00392723
2495.08	0.385517
2496.46	0.17851
2497.84	-0.151387
2499.23	-0.0472202
2500.61	-0.0826674
2501.99	0.082242
2503.37	0.15343
2504.75	-0.115596
2506.13	0.24718
2507.52	0.254969
2508.9	-0.290594
2510.28	-0.0360708
2511.66	0.0190015
2513.04	-0.0326939
2514.42	-0.236771
2515.8	0.233599
2517.18	0.229811
2518.55	-0.0792866
2519.93	0.116352
2521.31	-0.222968
2522.69	-0.24187
2524.07	0.150419
2525.45	0.145297
2526.82	0.0486021
2528.2	0.0893388
2529.58	-0.081964
2530.95	-0.054224
2532.33	-0.101127
2533.71	0.0809722
2535.08	0.0661397
2536.46	-0.00948668
2537.84	-0.0704365
2539.21	-0.0713673
2540.59	-0.361419
2541.96	0.0314345
2543.34	-0.16747
2544.71	-0.244236
2546.08	0.241201
2547.46	0.333272
2548.83	0.213697
2550.2	0.0789728
2551.58	0.125945
2552.95	0.187363
2554.32	0.156884
2555.7	0.0498276
2557.07	-0.224458
2558.44	0.0623574
2559.81	0.318924
2561.18	-0.0910387
2562.55	-0.0760283
2563.93	0.227384
2565.3	0.0462275
2566.67	-0.0134845
2568.04	0.154214
2569.41	-0.0417929
2570.78	-0.13171
2572.15	0.0512466
2573.51	-0.0233898
2574.88	0.250728
2576.25	-0.0360274
2577.62	0.268451
2578.99	0.042089
2580.36	-0.123903
2581.73	0.195001
2583.09	0.0435705
2584.46	-0.0928502
2585.83	-0.320218
2587.19	-0.229142
2588.56	-0.107608
2589.93	0.135248
2591.29	-0.137235
2592.66	-0.0312271
2594.02	-0.107669
2595.39	-0.169723
2596.75	-0.156844
2598.12	0.112582
2599.48	0.260449
2600.85	-0.0752687
2602.21	-0.00244713
2603.58	0.116146
2604.94	-0.202481
2606.3	-0.294441
2607.67	0.111021
2609.03	0.0934591
2610.39	-0.0907402
2611.76	-0.200475
2613.12	0.00484276
2614.48	-0.0912671
2615.84	0.0226984
2617.2	-0.253115
2618.56	-0.0187078
2619.92	-0.128237
2621.28	-0.027658
2622.65	0.237575
2624.01	0.383207
2625.37	0.0212612
2626.72	-0.0421443
2628.08	-0.105712
2629.44	0.0241537
2630.8	-0.0992632
2632.16	-0.0144286
2633.52	0.0702481
2634.88	0.37741
2636.24	0.120528
2637.59	-0.0914788
2638.95	-0.00696325
2640.31	0.329064
2641.67	-0.192621
2643.02	-0.0485239
2644.38	0.316964
2645.74	0.047544
2647.09	0.19096
2648.45	-0.0199094
2649.8	0.180985
2651.16	-0.030684
2652.51	0.198414
2653.87	0.133829
2655.22	0.348495
2656.58	-0.256422
2657.93	0.179634
2659.29	0.29411
2660.64	0.0432949
2661.99	-0.0173869
2663.35	-0.0054369
2664.7	0.15182
2666.05	-0.0126252
2667.41	0.303736
2668.76	-0.0211773
2670.11	0.0766187
2671.46	-0.0579123
2672.81	0.36041
2674.16	0.328603
2675.51	-0.00746679
2676.87	0.107013
2678.22	0.323489
2679.57	-0.343925
2680.92	0.207567
2682.27	0.0350981
2683.62	0.0955958
2684.97	0.345489
2686.31	0.189673
2687.66	0.135242
2689.01	0.471803
2690.36	-0.238245
2691.71	-0.310912
2693.06	0.137601
2694.4	0.0339031
2695.75	-0.258214
2697.1	0.319603
2698.45	-0.0576806
2699.79	0.203655
2701.14	0.365086
2702.49	0.296105
2703.83	0.227982
2705.18	0.247236
2706.52	0.194049
2707.87	0.503383
2709.21	0.406186
2710.56	0.468351
2711.9	0.254333
2713.25	0.141802
2714.59	0.348949
2715.94	0.236307
2717.28	0.458016
2718.62	0.330493
2719.97	0.217173
2721.31	0.656483
2722.65	0.236761
2723.99	0.427936
2725.34	0.400433
2726.68	0.387184
2728.02	0.533777
2729.36	0.578289
2730.7	0.15707
2732.04	0.230597
2733.39	0.522403
2734.73	0.494313
2736.07	0.364608
2737.41	0.307769
2738.75	0.280023
2740.08	0.717434
2741.43	0.20925
2742.76	0.0205402
2744.1	0.456291
2745.44	0.353725
2746.78	0.352547
2748.12	0.0173817
2749.46	0.553093
2750.79	0.406903
2752.13	0.420537
2753.47	0.144522
2754.81	-0.102176
2756.14	0.534909
2757.48	0.375402
2758.81	0.389925
2760.15	0.216639
2761.49	0.072772
2762.82	0.406841
2764.16	0.220263
2765.49	0.134985
2766.83	0.324238
2768.16	0.208932
2769.5	-0.254359
2770.83	-0.0824976
2772.16	0.0303311
2773.5	0.171031
2774.83	0.123646
2776.17	0.277975
2777.5	0.0725722
2778.83	0.313755
2780.16	-0.0485163
2781.5	0.178763
2782.83	-0.0390501
2784.16	0.216664
2785.49	0.271389
2786.82	-0.060504
2788.15	0.0378561
2789.49	-0.521393
2790.82	-0.0640287
2792.15	0.136298
2793.48	-0.0204606
2794.81	0.108731
2796.14	0.0232806
2797.46	-0.105396
2798.79	0.322435
2800.12	0.0930638
2801.45	0.148998
2802.78	0.0621529
2804.11	0.0749493
2805.44	0.301024
2806.76	-0.0572262
2808.09	0.210326
2809.42	0.0792189
2810.75	0.147158
2812.07	-0.0115519
2813.4	-0.169151
2814.73	0.071506
2816.05	0.454936
2817.38	0.300619
2818.7	0.132636
2820.03	0.262313
2821.36	-0.0193863
2822.68	0.236944
2824.01	0.57769
2825.33	0.39391
2826.65	0.380195
2827.98	0.39524
2829.3	0.3966
2830.63	0.469136
2831.95	0.626783
2833.27	0.756064
2834.6	0.616139
2835.92	0.758874
2837.24	0.688869
2838.56	1.32581
2839.88	1.42486
2841.21	1.14222
2842.53	1.49617
2843.85	1.73752
2845.17	1.96537
2846.49	1.91116
2847.81	2.43674
2849.13	2.48184
2850.45	2.14504
2851.77	2.23179
2853.09	2.37458
2854.41	2.47459
2855.73	2.51787
2857.05	2.78715
2858.37	2.64679
2859.69	2.91601
2861	2.7755
2862.32	3.15706
2863.64	3.36872
2864.96	3.93275
2866.28	4.18612
2867.59	4.00245
2868.91	4.42561
2870.23	5.06054
2871.54	4.96247
2872.86	5.27283
2874.17	4.84953
2875.49	5.50987
2876.81	5.28146
2878.12	5.31971
2879.44	5.24508
2880.75	4.73515
2882.07	5.09764
2883.38	4.98348
2884.69	5.23549
2886.01	5.20726
2887.32	5.19316
2888.63	5.34694
2889.95	5.83642
2891.26	5.41316
2892.57	5.53616
2893.89	5.53278
2895.2	5.23575
2896.51	5.83564
2897.82	5.55474
2899.13	5.31706
2900.44	5.94762
2901.76	6.21489
2903.07	6.1886
2904.38	5.95264
2905.69	6.16457
2907	6.92262
2908.31	6.66051
2909.62	6.91696
2910.93	7.17414
2912.24	7.75335
2913.55	7.32383
2914.85	7.48059
2916.16	7.88728
2917.47	8.36189
2918.78	8.75103
2920.09	8.76206
2921.4	8.69
2922.7	8.92702
2924.01	9.29149
2925.32	8.95844
2926.62	9.64657
2927.93	9.81754
2929.24	9.94606
2930.54	9.92005
2931.85	10.159
2933.15	10.2857
2934.46	10.4542
2935.76	10.5949
2937.07	10.051
2938.37	9.95451
2939.68	9.95617
2940.98	8.91043
2942.29	9.37487
2943.59	8.80661
2944.89	8.53333
2946.2	8.52697
2947.5	7.69582
2948.8	7.32557
2950.11	7.52777
2951.41	6.98582
2952.71	7.07175
2954.01	6.61
2955.32	6.93184
2956.62	6.9466
2957.92	6.80964
2959.22	6.38161
2960.52	6.16635
2961.82	6.66796
2963.12	6.10488
2964.42	6.36864
2965.72	5.88658
2967.02	6.09082
2968.32	6.06877
2969.62	5.65206
2970.92	5.44594
2972.22	5.36659
2973.51	5.14679
2974.81	5.6447
2976.11	5.01573
2977.41	4.65268
2978.71	4.82284
2980	4.55467
2981.3	4.45408
2982.6	4.32479
2983.9	4.46299
2985.19	4.09622
2986.49	3.52033
2987.78	3.60635
2989.08	3.45441
2990.38	3.654
2991.67	3.06599
2992.97	2.85638
2994.26	2.51909
2995.56	2.78483
2996.85	2.78282
2998.14	2.4718
2999.44	2.82048
3000.73	2.01956
3002.03	2.24289
3003.32	1.83583
3004.61	2.29756
3005.91	1.90443
3007.2	1.8189
3008.49	1.70462
3009.78	1.4078
3011.07	1.48788
3012.37	1.27418
3013.66	1.39553
3014.95	1.26607
3016.24	1.26269
3017.53	1.12067
3018.82	1.5775
3020.11	1.10205
3021.4	1.08532
3022.69	0.762233
3023.98	0.966054
3025.27	0.891476
3026.56	0.85831
3027.85	0.991552
3029.14	0.765981
3030.43	0.818248
3031.71	0.747343
3033	0.539249
3034.29	0.676485
3035.58	0.688918
3036.87	0.989664
3038.15	0.943912
3039.44	0.73135
3040.73	0.778951
3042.01	0.784353
3043.3	0.885507
3044.59	0.672211
3045.87	0.747847
3047.16	0.866074
3048.44	1.16357
3049.73	0.862105
3051.01	1.1625
3052.3	1.2042
3053.58	1.23217
3054.87	1.15028
3056.15	0.890065
3057.43	1.36509
3058.72	1.03493
3060	1.23581
3061.29	1.00121
3062.57	0.631582
3063.85	1.1607
3065.13	0.929543
3066.42	0.781113
3067.7	1.01413
3068.98	0.839472
3070.26	1.09963
3071.54	0.51567
3072.82	0.705768
3074.11	0.962513
3075.39	0.593058
3076.67	0.848229
3077.95	0.248251
3079.23	0.545036
3080.51	0.327319
3081.79	0.436376
3083.07	0.37001
3084.35	0.426198
3085.63	0.31947
3086.9	0.320788
3088.18	0.524974
3089.46	0.158382
3090.74	0.279872
3092.02	0.238253
3093.29	0.400084
3094.57	-0.170331
3095.85	0.222193
3097.13	0.370494
3098.4	-0.281108
3099.68	0.219076
3100.95	0.0821042
3102.23	-0.217399
3103.51	0.295638
3104.78	-0.125245
3106.06	0.104065
3107.33	0.57752
3108.61	-0.0174112
3109.88	-0.0297251
3111.16	-0.136178
3112.43	0.0693069
3113.71	-0.131378
3114.98	0.23698
3116.25	0.184661
3117.53	-0.370407
3118.8	0.117798
3120.07	0.103071
3121.35	-0.0210629
3122.62	-0.0915699
3123.89	0.203379
3125.16	0.173076
3126.44	-0.43897
3127.71	0.153802
3128.98	-0.132688
3130.25	-0.148482
3131.52	-0.123807
3132.79	0.116733
3134.06	-0.00809431
3135.33	-0.133437
3136.6	0.0779796
3137.87	0.00535202
3139.14	-0.21587
3140.41	0.262798
3141.68	0.296714
3142.95	-0.166548
3144.22	0.176644
3145.49	-0.177967
3146.76	-0.0357332
3148.02	0.0798488
3149.29	0.195572
