200.398	-0.0140066
202.213	0.00535202
204.027	0.0256462
205.843	0.119608
207.657	-0.151039
209.47	-0.178897
211.283	0.0595217
213.097	0.320847
214.909	0.21699
216.721	-0.202365
218.533	0.178099
220.344	-0.216069
222.157	0.310102
223.967	0.352818
225.777	0.492579
227.587	0.100785
229.396	0.481658
231.205	0.354829
233.016	-0.109919
234.824	0.31811
236.632	-0.265678
238.439	0.212799
240.247	0.0182781
242.053	0.259432
243.86	-0.173617
245.666	0.18931
247.474	0.672028
249.279	0.0660858
251.085	-0.107797
252.889	-0.0907249
254.694	0.0213709
256.498	0.325809
258.301	0.0762472
260.105	0.285861
261.908	0.304181
263.71	0.44428
265.513	-0.0652971
267.315	0.244587
269.116	0.168641
270.918	0.236644
272.718	-0.250847
274.519	0.0802746
276.319	0.699267
278.119	0.159689
279.918	0.317406
281.718	-0.104414
283.516	0.386778
285.315	0.275222
287.113	0.42722
288.911	0.458964
290.708	0.347482
292.505	0.787736
294.302	-0.254406
296.098	0.690153
297.894	0.153022
299.69	0.428997
301.485	0.561344
303.278	0.287001
305.073	0.369869
306.867	-0.0490265
308.661	-0.0624371
310.454	0.496367
312.247	0.198215
314.04	0.377762
315.833	0.249204
317.623	0.193481
319.415	0.329553
321.206	0.228331
322.997	0.151477
324.788	0.00329304
326.579	0.380288
328.367	-0.102554
330.156	0.0828819
331.946	0.53069
333.735	0.786064
335.523	0.106513
337.31	0.166851
339.098	0.15374
340.885	0.0915451
342.673	0.482902
344.458	0.0136538
346.244	0.0706196
348.03	0.128078
349.816	0.138163
351.6	-0.496166
353.385	-0.271566
355.17	0.214518
356.953	0.0315523
358.737	0.0145507
360.521	0.0204735
362.304	0.097044
364.085	0.0777769
365.868	0.271796
367.65	0.488575
369.431	-0.00712967
371.212	0.01862
372.994	-0.05088
374.773	-0.191426
376.554	0.352952
378.332	0.259861
380.112	-0.232808
381.892	0.453184
383.669	0.0101337
385.448	-0.290302
387.225	-0.448547
389.003	-0.0655608
390.781	0.083128
392.557	0.467255
394.334	0.123862
396.109	0.532274
397.885	0.118819
399.66	0.386319
401.436	0.348173
403.211	0.215584
404.984	0.176363
406.759	-0.0277972
408.532	0.190241
410.306	0.00889635
412.078	-0.0315533
413.851	0.397632
415.623	0.45188
417.395	0.342543
419.166	0.116377
420.938	-0.180032
422.708	-0.054172
424.477	0.000782967
426.248	-0.0153627
428.017	0.132172
429.788	0.420149
431.556	0.0273933
433.326	0.526778
435.093	0.0876451
436.86	0.164846
438.629	0.0772619
440.395	-0.222569
442.163	0.0157948
443.929	0.0178628
445.694	0.276187
447.461	0.533128
449.226	0.274769
450.99	0.250577
452.756	0.109971
454.52	-0.123513
456.285	-0.00701427
458.048	0.0859137
459.811	-0.0539598
461.573	0.225452
463.337	-0.00560522
465.099	-0.0720201
466.86	0.189042
468.623	0.545303
470.384	0.0662508
472.144	0.145657
473.906	0.154799
475.666	0.558548
477.425	0.378391
479.184	0.243306
480.944	0.154023
482.703	0.274456
484.461	-0.0467448
486.218	0.215826
487.975	0.480271
489.734	0.233591
491.491	0.384197
493.247	0.512253
495.003	0.243174
496.759	0.605556
498.516	0.171802
500.271	0.67493
502.025	0.403903
503.779	0.390123
505.533	0.328433
507.287	-0.0871172
509.042	0.248614
510.795	0.136246
512.547	0.0226474
514.299	0.566758
516.051	0.00396204
517.803	-0.230197
519.554	0.569423
521.305	0.33389
523.055	0.215645
524.805	0.261662
526.555	0.213787
528.307	0.165993
530.056	-0.0692897
531.805	-0.328021
533.553	0.864254
535.301	0.135974
537.049	0.155652
538.797	0.127543
540.544	0.00532198
542.291	-0.443326
544.037	0.458194
545.783	0.404804
547.529	0.328486
549.275	0.438015
551.02	0.431708
552.765	0.448709
554.509	0.327203
556.253	0.206173
557.997	0.0165133
559.738	0.518789
561.482	0.0537949
563.224	-0.202971
564.967	-0.0451756
566.709	-0.231668
568.451	0.248434
570.192	0.132229
571.933	-0.349912
573.674	0.224506
575.415	0.616748
577.153	0.0696702
578.893	-0.293099
580.632	0.217135
582.371	-0.420954
584.11	-0.0254855
585.849	0.599565
587.587	0.073813
589.323	0.122129
591.06	0.399828
592.797	-0.22018
594.534	0.494131
596.271	0.334194
598.005	-0.00980616
599.741	0.19811
601.476	-0.0546765
603.211	0.335662
604.944	0.195894
606.679	0.078239
608.413	-0.246587
610.147	-0.387537
611.878	-0.115117
613.611	0.134679
615.344	-0.0277534
617.077	-0.121177
618.807	0.74701
620.539	0.0341334
622.27	0.167569
623.999	0.300173
625.73	0.158433
627.461	0.0861354
629.189	0.0381703
630.919	0.539595
632.648	0.221112
634.376	0.405512
636.105	0.178899
637.833	0.590173
639.559	0.200517
641.287	-0.00856638
643.013	0.669652
644.74	-0.134307
646.467	0.610249
648.192	0.536701
649.918	-0.102419
651.642	0.30668
653.368	0.264262
655.091	0.406298
656.816	0.504828
658.538	0.627128
660.263	0.384337
661.987	0.665177
663.708	0.62472
665.432	-0.286435
667.153	-0.147628
668.875	0.287982
670.596	0.129419
672.318	0.315444
674.037	0.297378
675.759	0.785155
677.478	0.609507
679.196	0.640357
680.917	0.555599
682.635	0.561355
684.355	0.910774
686.072	0.637148
687.791	0.431225
689.508	0.639023
691.224	0.708065
692.942	0.661445
694.658	0.890641
696.376	0.727523
698.091	0.517523
699.805	0.651887
701.522	0.762222
703.236	0.595879
704.95	0.635919
706.665	0.468935
708.379	0.577085
710.093	0.730588
711.806	0.173855
713.518	0.898776
715.23	1.02807
716.943	1.02008
718.655	0.305015
720.366	1.36911
722.078	1.27009
723.788	1.05754
725.498	1.09533
727.208	1.13283
728.919	0.806836
730.628	0.730498
732.337	0.744609
734.045	1.03004
735.755	0.930665
737.463	0.673703
739.17	0.846364
740.877	0.726414
742.584	1.41849
744.292	1.4804
745.998	1.20585
747.704	1.15758
749.409	1.94261
751.114	0.681821
752.819	1.19894
754.526	1.17731
756.23	1.24685
757.934	0.777265
759.637	1.11931
761.34	1.55286
763.043	1.46856
764.746	2.15164
766.448	1.65983
768.152	1.09817
769.853	0.918814
771.554	1.41626
773.255	1.82214
774.956	1.66226
776.656	1.45758
778.356	1.81917
780.056	1.68453
781.755	1.52812
783.454	1.71122
785.153	1.39556
786.851	1.59869
788.549	1.86719
790.247	2.11017
791.944	1.53687
793.641	2.06966
795.338	1.92441
797.034	1.26174
798.73	1.52477
800.426	1.83387
802.121	1.78384
803.817	1.95932
805.511	1.57255
807.206	1.79217
808.9	1.38182
810.592	1.77897
812.286	1.70386
813.979	1.69562
815.672	2.15729
817.364	1.52211
819.057	1.62556
820.748	2.10858
822.44	2.30104
824.129	1.69117
825.82	1.79626
827.511	1.72472
829.201	2.14529
830.891	2.39014
832.581	2.14736
834.269	1.25971
835.958	1.46476
837.646	1.87078
839.335	2.07538
841.023	2.14482
842.709	1.94505
844.396	1.65537
846.084	1.92482
847.77	1.5921
849.455	1.59652
851.141	1.44614
852.827	1.67801
854.513	1.52968
856.196	0.886752
857.881	1.54577
859.566	1.4396
861.248	1.01663
862.932	1.40295
864.616	1.18012
866.297	0.798596
867.98	1.04775
869.663	1.16135
871.343	1.34239
873.026	1.61356
874.707	1.3432
876.387	1.36612
878.068	1.16334
879.747	1.29901
881.428	1.16353
883.108	1.25325
884.786	1.40985
886.465	1.11392
888.143	1.49383
889.822	1.6241
891.498	1.34737
893.177	0.822229
894.855	1.21961
896.53	1.43561
898.208	1.33598
899.883	1.0788
901.56	1.7402
903.234	1.05689
904.91	2.00659
906.584	1.41392
908.26	1.09068
909.933	1.2365
911.608	1.00447
913.28	0.951236
914.955	1.25362
916.627	1.2671
918.298	0.704261
919.972	0.585366
921.643	1.35195
923.315	1.18969
924.986	0.94051
926.656	0.604636
928.328	1.3959
929.997	1.15054
931.668	0.574841
933.337	1.25694
935.006	1.18903
936.676	0.834713
938.344	1.23089
940.012	1.20893
941.681	1.18788
943.348	1.16737
945.014	1.01433
946.683	0.838332
948.349	0.815495
950.015	1.16643
951.682	1.38383
953.347	1.0056
955.012	1.11377
956.676	0.91523
958.343	1.09399
960.006	1.07637
961.67	1.70049
963.333	1.10971
964.998	1.06986
966.661	1.20496
968.323	1.66983
969.985	1.07102
971.649	0.95829
973.31	1.02281
974.971	1.19893
976.632	0.558119
978.293	0.803019
979.953	0.982169
981.615	1.16115
983.274	0.89643
984.933	1.16153
986.592	0.650328
988.251	1.3328
989.909	1.01858
991.567	0.814669
993.225	0.76545
994.884	0.870848
996.541	0.490842
998.198	2.02953
999.855	1.80332
1001.51	1.09257
1003.17	1.17466
1004.82	0.970482
1006.48	0.898335
1008.13	0.760479
1009.79	1.12776
1011.44	0.508008
1013.1	0.853686
1014.75	0.607831
1016.4	0.625225
1018.06	0.77424
1019.71	0.661232
1021.36	0.483459
1023.01	0.568866
1024.66	1.02645
1026.32	1.02546
1027.97	0.4564
1029.62	0.455054
1031.27	0.977004
1032.92	0.886119
1034.57	0.7068
1036.22	0.722903
1037.87	0.280855
1039.52	0.535976
1041.16	0.682384
1042.81	0.546924
1044.46	0.67357
1046.11	0.671196
1047.76	0.605043
1049.4	0.105732
1051.05	0.280539
1052.7	1.02081
1054.34	0.718656
1055.99	0.590238
1057.63	1.11372
1059.28	0.375952
1060.92	0.485567
1062.57	0.420674
1064.21	0.572554
1065.85	0.0279727
1067.5	0.0044899
1069.14	0.610394
1070.78	0.780993
1072.43	0.582301
1074.07	0.796353
1075.71	0.772388
1077.35	-0.248188
1078.99	0.185217
1080.63	0.74922
1082.27	0.771104
1083.91	0.532166
1085.55	0.400538
1087.19	-0.0357847
1088.83	0.826177
1090.47	0.495568
1092.11	0.640204
1093.75	0.935346
1095.39	0.237537
1097.03	0.403817
1098.66	-0.0108185
1100.3	0.738749
1101.94	0.348479
1103.57	0.454522
1105.21	0.669018
1106.84	0.15264
1108.48	0.646917
1110.11	0.710235
1111.75	0.170557
1113.38	0.317634
1115.02	-0.0945334
1116.65	0.415895
1118.29	0.839903
1119.92	0.535409
1121.55	0.981425
1123.19	0.379054
1124.82	0.697866
1126.45	0.182933
1128.08	0.117864
1129.71	-0.053606
1131.34	0.780169
1132.97	0.481012
1134.6	0.395569
1136.23	0.160093
1137.86	-0.0332813
1139.49	0.413433
1141.12	-0.144403
1142.75	-0.339303
1144.38	0.297855
1146.01	0.124759
1147.64	-0.0475464
1149.26	-0.112632
1150.89	-0.0708547
1152.52	0.290342
1154.15	0.204033
1155.77	0.458007
1157.4	0.201087
1159.02	0.17852
1160.65	0.241598
1162.27	-0.0560341
1163.9	0.348691
1165.52	0.881355
1167.15	-0.159533
1168.77	0.202138
1170.39	0.519995
1172.02	0.453803
1173.64	0.174064
1175.26	0.445421
1176.89	-0.195612
1178.51	0.562522
1180.13	0.515652
1181.75	0.257945
1183.37	0.318152
1184.99	0.336071
1186.61	0.205511
1188.23	0.622581
1189.85	0.46833
1191.47	0.291957
1193.09	0.304145
1194.71	0.315691
1196.33	0.306224
1197.94	0.27647
1199.56	0.62445
1201.18	0.639102
1202.8	0.426016
1204.41	0.486364
1206.03	0.485638
1207.65	0.840548
1209.26	0.757555
1210.88	0.653152
1212.49	0.422469
1214.11	0.252915
1215.72	0.935694
1217.34	0.575788
1218.95	0.52752
1220.57	0.76986
1222.18	0.618153
1223.79	1.19285
1225.41	1.06381
1227.02	1.30859
1228.63	0.850979
1230.24	0.828892
1231.85	1.26247
1233.47	0.498083
1235.08	0.726745
1236.69	1.10099
1238.3	0.89728
1239.91	1.19027
1241.52	1.25605
1243.13	1.09404
1244.74	1.3866
1246.34	1.01624
1247.95	0.893407
1249.56	0.914841
1251.17	0.956705
1252.78	1.4124
1254.38	1.16531
1255.99	1.25
1257.6	1.19085
1259.2	1.27741
1260.81	0.82653
1262.42	1.65956
1264.02	1.25032
1265.63	1.13061
1267.23	0.8237
1268.84	0.992807
1270.44	1.09898
1272.04	0.68601
1273.65	1.10161
1275.25	1.20541
1276.85	1.12194
1278.46	0.892885
1280.06	1.38825
1281.66	1.32413
1283.26	0.991179
1284.86	1.19657
1286.46	1.09239
1288.07	1.19573
1289.67	1.11375
1291.27	1.96204
1292.87	0.8886
1294.47	1.46756
1296.06	1.98331
1297.66	1.46519
1299.26	1.73026
1300.86	1.10725
1302.46	0.875648
1304.06	1.50809
1305.65	0.843496
1307.25	0.878155
1308.85	0.809942
1310.44	1.31568
1312.04	1.30882
1313.64	0.852591
1315.23	1.13355
1316.83	1.53727
1318.42	1.00231
1320.02	1.26318
1321.61	1.07482
1323.2	1.15023
1324.8	0.756632
1326.39	1.1547
1327.99	1.3688
1329.58	1.58274
1331.17	1.31199
1332.76	1.3668
1334.36	1.70593
1335.95	1.76345
1337.54	1.74072
1339.13	0.991875
1340.72	1.33048
1342.31	1.10343
1343.9	1.21705
1345.49	1.44999
1347.08	1.62222
1348.67	0.693718
1350.26	0.969549
1351.85	0.966877
1353.43	1.18568
1355.02	0.885696
1356.61	1.28555
1358.2	0.945746
1359.78	1.24448
1361.37	1.10301
1362.96	0.522195
1364.54	0.559799
1366.13	0.916307
1367.71	1.19335
1369.3	0.794252
1370.88	1.13279
1372.47	0.457449
1374.05	0.32026
1375.64	0.40243
1377.22	0.982168
1378.8	0.944701
1380.39	1.04577
1381.97	0.409807
1383.55	0.866998
1385.13	1.10443
1386.72	0.963792
1388.3	1.1014
1389.88	1.29893
1391.46	0.862042
1393.04	0.545038
1394.62	0.922651
1396.2	0.84391
1397.78	0.685409
1399.36	1.02167
1400.94	0.723129
1402.52	0.998497
1404.1	0.462392
1405.68	0.520421
1407.25	0.282526
1408.83	0.67768
1410.41	0.677919
1411.98	1.40877
1413.56	0.638484
1415.14	0.933628
1416.71	0.853149
1418.29	0.595064
1419.87	0.672359
1421.44	0.888171
1423.02	1.24278
1424.59	1.24425
1426.16	0.341354
1427.74	0.816622
1429.31	0.642204
1430.89	1.3922
1432.46	1.29495
1434.03	1.23633
1435.6	1.39372
1437.18	1.33488
1438.75	1.29629
1440.32	1.31745
1441.89	1.39831
1443.46	1.71557
1445.03	1.58112
1446.6	1.7613
1448.17	2.00061
1449.74	1.61109
1451.31	1.3988
1452.88	1.69818
1454.45	1.34886
1456.02	1.80608
1457.59	1.8694
1459.16	1.57748
1460.72	1.75651
1462.29	1.08801
1463.86	1.20535
1465.43	1.43965
1466.99	1.65375
1468.56	0.964757
1470.13	1.21906
1471.69	0.807034
1473.26	0.807901
1474.82	0.711308
1476.38	1.0268
1477.95	0.577735
1479.51	0.618793
1481.08	1.26736
1482.64	0.798664
1484.2	0.486769
1485.77	0.449006
1487.33	0.234472
1488.89	0.195391
1490.46	0.468166
1492.02	0.621731
1493.58	0.8125
1495.14	0.474756
1496.7	0.390328
1498.26	-0.102723
1499.82	0.474785
1501.38	0.275138
1502.94	0.270697
1504.5	0.0537682
1506.06	-0.046411
1507.62	0.626777
1509.18	0.621702
1510.73	0.287765
1512.29	0.0696445
1513.85	0.429223
1515.41	0.44198
1516.96	0.378344
1518.52	0.296225
1520.08	0.214742
1521.63	0.36321
1523.19	0.396464
1524.75	-0.0100164
1526.3	0.174924
1527.85	0.0350308
1529.41	0.0282359
1530.96	0.515124
1532.52	0.451112
1534.07	0.463664
1535.62	0.741741
1537.18	0.566432
1538.73	0.524144
1540.28	0.538794
1541.84	0.157893
1543.39	0.568129
1544.94	0.469769
1546.49	0.202414
1548.04	1.0613
1549.59	0.343882
1551.14	0.714116
1552.69	0.653732
1554.25	0.556749
1555.79	0.834448
1557.34	0.515774
1558.89	0.47868
1560.44	1.02128
1561.99	0.744182
1563.54	0.952969
1565.08	0.845056
1566.63	0.75587
1568.18	1.20775
1569.73	0.464845
1571.27	0.281564
1572.82	0.73276
1574.37	0.735857
1575.91	0.981648
1577.46	1.05959
1579	0.559089
1580.55	0.600412
1582.09	0.885091
1583.64	0.572729
1585.18	0.989531
1586.73	0.977026
1588.27	0.59055
1589.81	1.10178
1591.35	0.88306
1592.9	1.33794
1594.44	1.02493
1595.98	1.2551
1597.52	1.0734
1599.06	1.07955
1600.61	1.06749
1602.15	1.28098
1603.69	1.45715
1605.23	1.12575
1606.77	1.16895
1608.31	1.00398
1609.85	1.2508
1611.39	1.00726
1612.93	1.06293
1614.46	1.32402
1616	0.871685
1617.54	1.20751
1619.08	1.28153
1620.61	1.03826
1622.15	0.814876
1623.69	0.816849
1625.23	0.893747
1626.76	1.21339
1628.3	0.877094
1629.83	0.970166
1631.37	1.32402
1632.9	1.00472
1634.44	0.910015
1635.97	1.31975
1637.51	1.54331
1639.04	1.41299
1640.57	0.947346
1642.11	0.81696
1643.64	0.909371
1645.17	0.944985
1646.71	1.05427
1648.24	1.38613
1649.77	1.12359
1651.3	1.62296
1652.83	1.34373
1654.36	1.65892
1655.89	1.82614
1657.42	1.28912
1658.96	1.90027
1660.48	1.76936
1662.01	1.35995
1663.54	1.46784
1665.07	1.72287
1666.6	1.92238
1668.13	1.34785
1669.66	1.78896
1671.19	1.64125
1672.71	1.86292
1674.24	1.79024
1675.77	1.20194
1677.29	1.49683
1678.82	1.0916
1680.35	0.630837
1681.87	1.25417
1683.4	1.49083
1684.92	0.993215
1686.45	1.35842
1687.97	1.13702
1689.5	0.732989
1691.02	0.640823
1692.54	0.98803
1694.07	0.950728
1695.59	1.4618
1697.11	0.71137
1698.64	0.50938
1700.16	0.435084
1701.68	1.01709
1703.2	0.650173
1704.72	0.866139
1706.25	0.608344
1707.77	0.641644
1709.29	0.0935874
1710.81	0.835045
1712.33	0.868196
1713.85	0.756473
1715.37	0.753608
1716.89	0.226151
1718.41	0.530838
1719.92	0.708563
1721.44	0.435038
1722.96	0.378687
1724.48	-0.289466
1725.99	0.44859
1727.51	0.556895
1729.03	0.125993
1730.55	0.179392
1732.06	0.265126
1733.58	0.542079
1735.09	0.61102
1736.61	0.0509305
1738.13	0.254944
1739.64	0.15689
1741.15	0.384743
1742.67	0.262218
1744.18	0.103972
1745.7	0.384956
1747.21	0.224122
1748.72	0.0795765
1750.24	0.271648
1751.75	0.358367
1753.26	0.289369
1754.77	0.215797
1756.29	-0.0420127
1757.8	-0.167478
1759.31	0.0969114
1760.82	-0.000835896
1762.33	0.265085
1763.84	0.357202
1765.35	0.232512
1766.86	0.345738
1768.37	0.448095
1769.88	0.152376
1771.39	0.190506
1772.9	0.178615
1774.4	0.226543
1775.91	0.170361
1777.42	0.0978451
1778.93	0.213169
1780.44	-0.0171766
1781.94	-0.24989
1783.45	0.0596471
1784.96	0.208561
1786.46	0.0937018
1787.97	0.035933
1789.47	-0.20607
1790.98	0.0727835
1792.48	-0.095295
1793.99	0.0341988
1795.49	0.0693717
1797	0.123343
1798.5	0.164341
1800.01	0.105737
1801.51	0.0367589
1803.01	0.153237
1804.51	0.0172462
1806.02	0.0352583
1807.52	-0.242791
1809.02	-0.0676475
1810.52	0.0744734
1812.02	-0.0345182
1813.52	-0.200607
1815.02	-0.0743937
1816.53	0.0440965
1818.03	-0.223308
1819.52	0.287821
1821.02	-0.0103178
1822.52	0.0531721
1824.02	-0.212322
1825.52	-0.165862
1827.02	0.049149
1828.52	0.265227
1830.02	-0.0297647
1831.51	0.174947
1833.01	0.00764465
1834.51	0.408556
1836.01	-0.0816832
1837.5	0.00437641
1839	0.0957298
1840.49	0.103985
1841.99	-0.297921
1843.49	-0.039587
1844.98	0.036561
1846.48	-0.0368919
1847.97	-0.0671911
1849.47	0.00369167
1850.96	-0.0309691
1852.45	0.0753403
1853.95	0.0157037
1855.44	-0.0218263
1856.93	-0.0103688
1858.42	0.0834017
1859.92	-0.0101004
1861.41	-0.0385308
1862.9	0.26895
1864.39	-0.0189762
1865.88	0.0257273
1867.38	-0.121289
1868.87	0.0776739
1870.36	0.489263
1871.85	0.197975
1873.34	0.2082
1874.83	0.0699124
1876.32	-0.061152
1877.81	0.14345
1879.29	0.349976
1880.78	0.020925
1882.27	0.250593
1882.53	0.316002
1884.03	0.246772
1885.52	0.124765
1887.01	0.141603
1888.51	0.0362244
1890	0.331252
1891.5	0.0354128
1892.99	0.488484
1894.48	-0.083014
1895.97	-0.149278
1897.47	0.132822
1898.96	0.0496569
1900.45	0.209332
1901.94	0.0373669
1903.43	0.52511
1904.92	0.159681
1906.41	0.610639
1907.9	0.158123
1909.39	0.088325
1910.88	0.00187206
1912.37	-0.153311
1913.86	0.0214715
1915.35	0.21359
1916.84	0.370728
1918.33	0.0247765
1919.81	0.0772376
1921.3	0.406734
1922.79	0.112952
1924.28	0.114222
1925.76	0.116266
1927.25	0.222912
1928.73	-0.189412
1930.22	0.246649
1931.71	-0.0970592
1933.19	0.00850105
1934.68	-0.0602684
1936.16	-0.00898457
1937.65	0.439116
1939.13	0.471622
1940.62	0.107154
1942.1	0.33046
1943.58	0.0540338
1945.07	0.157775
1946.55	0.296182
1948.03	-0.030961
1949.51	-0.0655136
1951	0.037046
1952.48	-0.188062
1953.96	0.119798
1955.44	-0.191415
1956.92	0.0990644
1958.4	0.14938
1959.88	0.217296
1961.36	0.165497
1962.84	0.353835
1964.32	0.0107698
1965.8	0.249909
1967.28	0.43698
1968.76	0.0589137
1970.24	0.38174
1971.72	0.054872
1973.2	0.0868635
1974.67	0.101815
1976.15	0.0316439
1977.63	0.114974
1979.1	0.351449
1980.58	0.31543
1982.06	-0.0266318
1983.54	-0.0796523
1985.01	0.0708613
1986.49	-0.0843058
1987.96	0.33694
1989.44	0.0465379
1990.91	0.146213
1992.39	0.111095
1993.86	-0.0247436
1995.33	-0.0078392
1996.81	-0.210282
1998.28	-0.108633
1999.75	0.380949
2001.23	-0.193399
2002.7	0.210715
2004.17	0.176025
2005.65	-0.094306
2007.12	0.24244
2008.59	-0.0434256
2010.06	0.0249505
2011.53	0.0431519
2013	0.330675
2014.47	0.415875
2015.94	0.16401
2017.41	0.0966763
2018.88	-0.122454
2020.35	0.313547
2021.82	-0.0234947
2023.29	-0.124992
2024.76	0.143229
2026.23	-0.0576043
2027.69	0.0780082
2029.16	0.164285
2030.63	-0.117604
2032.1	0.00373793
2033.56	0.29334
2035.03	0.213683
2036.5	-0.219076
2037.96	0.439781
2039.43	0.10707
2040.89	0.295288
2042.36	0.298892
2043.83	0.420743
2045.29	-0.0119829
2046.75	0.312979
2048.22	0.335279
2049.68	0.104566
2051.15	0.4125
2052.61	0.0786924
2054.07	0.131485
2055.54	-0.0529728
2057	0.21691
2058.46	0.0647917
2059.92	0.43484
2061.39	0.417621
2062.85	-0.0366726
2064.31	0.435523
2065.77	0.268808
2067.23	0.287787
2068.69	0.340823
2070.15	0.293083
2071.61	0.0433359
2073.07	-0.156063
2074.53	0.536796
2075.99	0.471711
2077.45	0.237957
2078.91	-0.0129089
2080.37	0.173752
2081.82	0.461014
2083.28	0.242724
2084.74	0.293285
2086.2	0.0237021
2087.65	0.39286
2089.11	0.324435
2090.57	0.457498
2092.02	0.0027709
2093.48	0.118957
2094.94	-0.1341
2096.39	0.517851
2097.85	0.180337
2099.3	0.478845
2100.76	0.642886
2102.21	0.171855
2103.66	0.136198
2105.12	-0.0154099
2106.57	0.05088
2108.03	0.201188
2109.48	0.368308
2110.93	0.218243
2112.38	0.483976
2113.84	0.248686
2115.29	0.0459433
2116.74	-0.0905423
2118.19	0.28831
2119.64	0.219299
2121.09	0.0520854
2122.54	0.0852489
2123.99	0.55046
2125.45	0.402505
2126.89	0.287549
2128.34	0.586367
2129.79	0.469802
2131.24	0.551199
2132.69	0.565748
2134.14	0.315569
2135.59	0.380325
2137.04	0.479049
2138.48	0.231905
2139.93	0.0355735
2141.38	0.253465
2142.83	0.158043
2144.27	0.443448
2145.72	0.315413
2147.17	0.286412
2148.61	0.521977
2150.06	0.458889
2151.5	0.676782
2152.95	0.181549
2154.39	0.497653
2155.84	0.33296
2157.28	0.416818
2158.73	0.56738
2160.17	0.685697
2161.61	0.622949
2163.06	0.379002
2164.5	0.699815
2165.94	0.241321
2167.38	0.546354
2168.83	0.668225
2170.27	0.672598
2171.71	0.542461
2173.15	0.527462
2174.59	0.644617
2176.03	0.511886
2177.47	0.545598
2178.91	0.247281
2180.36	0.564744
2181.8	0.699909
2183.23	0.369859
2184.67	0.472321
2186.11	0.658043
2187.55	0.461139
2188.99	0.513815
2190.43	0.0171838
2191.87	0.50246
2193.3	0.537816
2194.74	0.439101
2196.18	0.672126
2197.62	0.421154
2199.05	0.684761
2200.49	0.299327
2201.93	0.478831
2203.36	0.276914
2204.8	0.523633
2206.23	0.455875
2207.67	0.554183
2209.1	0.337647
2210.54	0.501473
2211.97	0.184764
2213.41	0.446503
2214.84	0.509575
2216.27	0.193304
2217.71	0.571017
2219.14	0.503948
2220.57	0.0583177
2222.01	0.387634
2223.44	0.156112
2224.87	0.28617
2226.3	0.431404
2227.73	0.312256
2229.16	0.241754
2230.6	0.531799
2232.03	0.460539
2233.46	0.471456
2234.89	0.237576
2236.32	0.31529
2237.75	0.295962
2239.18	0.261566
2240.61	0.375299
2242.03	0.131351
2243.46	0.344893
2244.89	-0.224263
2246.32	-0.0435348
2247.75	-0.189991
2249.17	0.0698733
2250.6	0.442081
2252.03	0.617219
2253.46	0.401173
2254.88	0.494404
2256.31	0.409873
2257.73	0.116072
2259.16	0.294756
2260.59	0.248184
2262.01	0.46288
2263.44	0.51644
2264.86	0.228983
2266.29	0.20111
2267.71	-0.0225301
2269.14	0.290106
2270.56	0.407069
2271.98	0.165523
2273.4	0.347191
2274.83	0.00771141
2276.25	0.303651
2277.67	0.143503
2279.09	0.244145
2280.52	0.214342
2281.94	-0.0276103
2283.36	0.056551
2284.78	0.189728
2286.2	0.388398
2287.62	0.342499
2289.04	0.411196
2290.46	0.316802
2291.88	0.0917301
2293.3	0.259038
2294.72	0.475559
2296.14	0.0865607
2297.56	0.352213
2298.98	0.192169
2300.4	0.130443
2301.82	0.232807
2303.23	-0.0418873
2304.65	-0.0541401
2306.07	0.0813498
2307.49	0.266039
2308.9	0.220396
2310.32	0.0592179
2311.73	0.193752
2313.15	0.443518
2314.57	-0.145734
2315.98	0.220074
2317.4	0.290176
2318.81	0.327674
2320.23	0.134137
2321.64	0.302709
2323.06	0.173057
2324.47	0.371928
2325.88	0.305236
2327.3	0.270457
2328.71	0.713134
2330.12	0.480121
2331.54	0.478431
2332.95	0.312921
2334.36	0.31261
2335.77	0.559214
2337.18	-0.181392
2338.6	-0.100126
2340.01	0.0625038
2341.42	0.306448
2342.83	0.352802
2344.24	0.136673
2345.65	0.166837
2347.06	0.115246
2348.47	-0.181805
2349.88	-0.069767
2351.29	0.335853
2352.7	0.380844
2354.1	0.327211
2355.51	0.32211
2356.92	0.0888352
2358.33	0.278913
2359.74	0.12747
2361.14	0.479529
2362.55	0.117464
2363.96	0.0799966
2365.36	0.058753
2366.77	0.102309
2368.18	-0.0475841
2369.58	-0.051373
2370.99	-0.151041
2372.39	-0.02422
2373.8	-0.13844
2375.2	0.182272
2376.61	0.196763
2378.01	0.114044
2379.42	-0.114181
2380.82	0.0582409
2382.22	0.117146
2383.63	0.0792398
2385.03	0.313179
2386.43	0.235283
2387.84	0.14219
2389.24	-0.213017
2390.64	0.166004
2392.04	0.322341
2393.44	0.638276
2394.84	0.079751
2396.25	0.285253
2397.65	-0.0493259
2399.05	0.109202
2400.45	0.0773478
2401.85	0.442793
2403.25	-0.287648
2404.65	0.0775208
2406.05	-0.0977464
2407.45	0.0755973
2408.84	0.216555
2410.24	0.166932
2411.64	-0.231043
2413.04	-0.0422125
2414.44	0.258122
2415.83	-0.153059
2417.23	-0.183442
2418.63	0.404263
2420.02	0.0580215
2421.42	-0.00330734
2422.82	-0.0173545
2424.21	0.0634794
2425.61	0.508838
2427	0.241473
2428.4	0.418459
2429.8	0.231441
2431.19	0.171657
2432.58	0.127787
2433.98	0.0200143
2435.37	0.340372
2436.77	0.119652
2438.16	0.358664
2439.55	0.485544
2440.95	0.151205
2442.34	0.0865903
2443.73	0.164644
2445.12	0.258379
2446.51	0.431198
2447.91	-0.109357
2449.3	0.253447
2450.69	0.156918
2452.08	0.108295
2453.47	0.17097
2454.86	0.281642
2456.25	-0.176725
2457.64	0.0769773
2459.03	0.188194
2460.42	0.0776033
2461.81	0.0455832
2463.2	0.0920959
2464.59	0.0117989
2465.98	0.0261269
2467.36	0.0719504
2468.75	0.212363
2470.14	0.0686398
2471.53	-0.0279484
2472.92	0.0799227
2474.3	0.328832
2475.69	-0.0522618
2477.08	-0.0243468
2478.46	-0.0750332
2479.85	0.031384
2481.23	0.0593433
2482.62	-0.100793
2484	-0.104429
2485.39	0.125981
2486.77	0.058351
2488.16	-0.134671
2489.54	-0.140675
2490.93	-0.224576
2492.31	0.096211
2493.69	0.121928
2495.08	-0.0687017
2496.46	-0.0411992
2497.84	0.0797391
2499.23	0.231643
2500.61	-0.158242
2501.99	0.425629
2503.37	0.0813842
2504.75	0.107413
2506.13	-0.0210977
2507.52	-0.211043
2508.9	0.183703
2510.28	-0.0517645
2511.66	0.235288
2513.04	0.185102
2514.42	0.120261
2515.8	0.0713992
2517.18	0.206664
2518.55	0.449163
2519.93	0.0191765
2521.31	-0.074532
2522.69	-0.0922303
2524.07	0.301376
2525.45	-0.00713682
2526.82	0.171959
2528.2	0.0315099
2529.58	0.0744419
2530.95	-0.109616
2532.33	0.117778
2533.71	-0.124994
2535.08	0.058115
2536.46	-0.108232
2537.84	-0.0167303
2539.21	0.104507
2540.59	0.10368
2541.96	0.0722656
2543.34	0.496227
2544.71	0.0255852
2546.08	0.0412569
2547.46	-0.078794
2548.83	-0.0314398
2550.2	0.152545
2551.58	0.336275
2552.95	-0.102818
2554.32	-0.178327
2555.7	0.049067
2557.07	-0.0880246
2558.44	0.062983
2559.81	0.153449
2561.18	-0.0892062
2562.55	0.138415
2563.93	0.0330062
2565.3	0.0642719
2566.67	0.262407
2568.04	0.0969005
2569.41	-0.0231419
2570.78	0.356983
2572.15	0.23698
2573.51	-0.155829
2574.88	-0.169635
2576.25	-0.0924506
2577.62	0.166652
2578.99	0.274014
2580.36	0.229522
2581.73	0.0482984
2583.09	0.124606
2584.46	0.0794706
2585.83	-0.0263143
2587.19	-0.238091
2588.56	-0.282996
2589.93	0.323826
2591.29	-0.0999489
2592.66	0.0215316
2594.02	-0.0393238
2595.39	-0.100792
2596.75	0.0641861
2598.12	0.077209
2599.48	0.180687
2600.85	-0.214505
2602.21	-0.14078
2603.58	-0.0817947
2604.94	0.113315
2606.3	-0.00835276
2607.67	-0.0698209
2609.03	0.0340233
2610.39	-0.119078
2611.76	0.223857
2613.12	0.279751
2614.48	0.380084
2615.84	0.0148697
2617.2	-0.00466633
2618.56	-0.323287
2619.92	-0.0273538
2621.28	-0.0304594
2622.65	-0.227462
2624.01	0.113512
2625.37	-0.142881
2626.72	0.257045
2628.08	0.0899487
2629.44	0.176034
2630.8	0.142828
2632.16	-0.0985079
2633.52	-0.205793
2634.88	0.399498
2636.24	-0.0639567
2637.59	0.11051
2638.95	-0.100219
2640.31	0.0445585
2641.67	-0.431609
2643.02	0.186289
2644.38	-0.288998
2645.74	0.0624709
2647.09	0.0888681
2648.45	0.070591
2649.8	0.184262
2651.16	-0.040854
2652.51	0.189554
2653.87	0.140903
2655.22	-0.0830398
2656.58	0.0456076
2657.93	-0.0447135
2659.29	-0.0319448
2660.64	-0.106646
2661.99	0.140158
2663.35	0.138013
2664.7	0.33969
2666.05	-0.203267
2667.41	0.157882
2668.76	0.241724
2670.11	0.00553083
2671.46	-0.0409446
2672.81	-0.10147
2674.16	0.230572
2675.51	0.0546498
2676.87	0.212964
2678.22	0.139554
2679.57	0.211749
2680.92	-0.0198326
2682.27	-0.0476365
2683.62	0.0703325
2684.97	0.130967
2686.31	-0.24334
2687.66	-0.153517
2689.01	0.19694
2690.36	0.0963173
2691.71	0.284816
2693.06	0.385128
2694.4	-0.254825
2695.75	0.236213
2697.1	0.031868
2698.45	0.118147
2699.79	0.0607057
2701.14	0.351949
2702.49	-0.00748968
2703.83	0.358051
2705.18	0.100883
2706.52	0.235138
2707.87	0.26777
2709.21	0.242107
2710.56	0.114526
2711.9	-0.056891
2713.25	0.338226
2714.59	0.4283
2715.94	0.140357
2717.28	0.0703268
2718.62	0.320155
2719.97	0.0896807
2721.31	0.106246
2722.65	0.297164
2723.99	0.182138
2725.34	0.328831
2726.68	0.329721
2728.02	0.053885
2729.36	0.12721
2730.7	0.244084
2732.04	0.113593
2733.39	0.099576
2734.73	0.216595
2736.07	0.101027
2737.41	0.029202
2738.75	0.408217
2740.08	0.0308414
2741.43	-0.230428
2742.76	0.249397
2744.1	0.263478
2745.44	0.248089
2746.78	0.145308
2748.12	0.579562
2749.46	0.0704041
2750.79	0.272455
2752.13	-0.0473824
2753.47	0.256351
2754.81	0.168832
2756.14	0.153886
2757.48	0.385218
2758.81	0.225763
2760.15	0.110067
2761.49	0.197331
2762.82	0.0967932
2764.16	0.546309
2765.49	0.214489
2766.83	-0.132042
2768.16	0.28756
2769.5	0.185555
2770.83	-0.105173
2772.16	0.28234
2773.5	0.0481291
2774.83	0.232048
2776.17	0.141953
2777.5	0.10983
2778.83	0.322594
2780.16	0.13304
2781.5	-0.0416727
2782.83	0.300551
2784.16	0.0542936
2785.49	0.180989
2786.82	0.0355172
2788.15	0.176846
2789.49	-0.124986
2790.82	-0.197154
2792.15	-0.0686126
2793.48	0.174522
2794.81	0.0888705
2796.14	0.00305223
2797.46	-0.197327
2798.79	0.230335
2800.12	0.229212
2801.45	-0.0716457
2802.78	0.226508
2804.11	0.0966759
2805.44	0.251555
2806.76	0.249284
2808.09	0.189711
2809.42	-0.026371
2810.75	-0.00067997
2812.07	0.124701
2813.4	0.179757
2814.73	0.278253
2816.05	0.193392
2817.38	0.23686
2818.7	0.20985
2820.03	0.168679
2821.36	0.254779
2822.68	-0.127213
2824.01	0.227279
2825.33	0.000646591
2826.65	0.4114
2827.98	0.0861011
2829.3	0.299217
2830.63	0.371054
2831.95	0.202387
2833.27	0.444191
2834.6	0.261143
2835.92	0.318403
2837.24	0.502639
2838.56	0.332865
2839.88	0.431742
2841.21	0.742711
2842.53	0.940743
2843.85	0.927165
2845.17	0.956492
2846.49	0.957984
2847.81	1.07279
2849.13	0.848412
2850.45	1.3164
2851.77	1.20455
2853.09	1.44567
2854.41	1.70061
2855.73	1.2489
2857.05	1.20699
2858.37	1.27812
2859.69	1.49045
2861	1.29311
2862.32	1.84383
2863.64	1.78716
2864.96	1.74443
2866.28	1.37726
2867.59	1.91304
2868.91	2.09639
2870.23	2.26587
2871.54	2.43542
2872.86	2.47787
2874.17	2.13932
2875.49	2.1946
2876.81	2.4884
2878.12	2.38732
2879.44	2.63772
2880.75	2.38207
2882.07	2.49254
2883.38	2.30875
2884.69	2.71547
2886.01	2.1819
2887.32	2.37842
2888.63	2.65872
2889.95	2.71386
2891.26	2.52995
2892.57	2.8503
2893.89	3.04416
2895.2	2.90205
2896.51	2.43872
2897.82	2.6761
2899.13	2.88611
2900.44	3.0267
2901.76	3.37743
2903.07	3.21072
2904.38	3.21197
2905.69	3.1295
2907	3.13135
2908.31	3.31564
2909.62	3.26274
2910.93	3.46213
2912.24	3.5916
2913.55	3.74853
2914.85	3.86243
2916.16	3.94699
2917.47	4.60413
2918.78	4.16879
2920.09	4.39094
2921.4	4.37577
2922.7	4.22178
2924.01	4.3065
2925.32	4.58777
2926.62	4.70178
2927.93	4.99755
2929.24	4.59402
2930.54	4.70729
2931.85	4.89007
2933.15	4.90485
2934.46	4.89165
2935.76	5.07418
2937.07	4.64191
2938.37	4.7548
2939.68	4.47662
2940.98	4.35253
2942.29	4.67624
2943.59	4.3161
2944.89	4.13856
2946.2	4.07365
2947.5	3.77128
2948.8	3.7484
2950.11	3.44463
2951.41	3.57353
2952.71	3.65904
2954.01	3.33746
2955.32	3.33763
2956.62	3.53437
2957.92	3.29865
2959.22	3.42881
2960.52	3.44902
2961.82	3.07822
2963.12	3.21246
2964.42	3.38858
2965.72	3.14242
2967.02	3.13368
2968.32	2.92712
2969.62	3.02923
2970.92	2.76557
2972.22	2.72706
2973.51	2.91391
2974.81	2.50961
2976.11	2.58334
2977.41	2.52941
2978.71	2.54463
2980	1.71397
2981.3	2.50109
2982.6	2.34477
2983.9	2.07632
2985.19	1.8369
2986.49	1.78127
2987.78	1.60015
2989.08	1.99582
2990.38	1.59062
2991.67	1.40989
2992.97	1.42517
2994.26	1.55195
2995.56	1.52332
2996.85	1.46608
2998.14	1.47886
2999.44	1.30941
3000.73	1.43486
3002.03	1.29427
3003.32	0.873774
3004.61	0.929832
3005.91	0.999634
3007.2	1.01293
3008.49	0.675813
3009.78	0.562162
3011.07	0.448136
3012.37	0.26415
3013.66	0.457057
3014.95	0.719587
3016.24	0.452801
3017.53	0.743673
3018.82	0.770138
3020.11	0.434989
3021.4	0.44735
3022.69	0.334087
3023.98	0.52561
3025.27	0.21713
3026.56	0.0614028
3027.85	0.445845
3029.14	0.304922
3030.43	0.469075
3031.71	0.689213
3033	0.302413
3034.29	0.523252
3035.58	0.38484
3036.87	0.438663
3038.15	0.422281
3039.44	0.184437
3040.73	0.44085
3042.01	0.613559
3043.3	0.52526
3044.59	0.451404
3045.87	0.76159
3047.16	0.498885
3048.44	0.0742531
3049.73	0.279095
3051.01	0.580328
3052.3	0.431702
3053.58	0.501351
3054.87	0.747824
3056.15	0.720611
3057.43	0.501735
3058.72	0.282463
3060	0.3219
3061.29	0.579179
3062.57	0.809567
3063.85	0.49681
3065.13	0.334713
3066.42	0.214272
3067.7	0.339134
3068.98	0.437022
3070.26	0.670689
3071.54	0.400477
3072.82	0.455778
3074.11	0.15668
3075.39	0.0745425
3076.67	0.290953
3077.95	0.358021
3079.23	0.46637
3080.51	0.42638
3081.79	0.360253
3083.07	-0.044281
3084.35	0.0806093
3085.63	0.0969343
3086.9	0.207905
3088.18	0.20975
3089.46	0.509626
3090.74	0.130533
3092.02	0.158396
3093.29	0.145564
3094.57	0.132842
3095.85	0.0388608
3097.13	-0.0551214
3098.4	-0.230517
3099.68	0.271486
3100.95	-0.0938816
3102.23	0.0825872
3103.51	0.123653
3104.78	-0.0922346
3106.06	0.247193
3107.33	0.11343
3108.61	0.047914
3109.88	0.0641961
3111.16	0.108112
3112.43	0.0170145
3113.71	0.0208793
3114.98	-0.0431414
3116.25	0.231409
3117.53	0.152766
3118.8	0.222472
3120.07	0.291306
3121.35	-0.115149
3122.62	0.00671053
3123.89	0.0063138
3125.16	-0.0482421
3126.44	0.208704
3127.71	0.181596
3128.98	0.00596428
3130.25	0.046885
3131.52	0.033669
3132.79	0.0202427
3134.06	-0.0745788
3135.33	0.00572157
3136.6	-0.157407
3137.87	-0.132038
3139.14	0.148864
3140.41	-0.00164604
3141.68	-0.0309677
3142.95	0.141347
3144.22	0.0584788
3145.49	0.1504
3146.76	0.0414143
3148.02	-0.26808
3149.29	-0.228848
