200.43	0.0695381
202.244	0.106295
204.059	0.143986
205.873	-0.304047
207.688	-0.338328
209.501	0.525708
211.314	0.0759239
213.127	0.0862064
214.941	-0.050436
216.753	-0.0908508
218.564	0.764693
220.375	0.167273
222.186	0.200221
223.999	0.572351
225.809	-0.650521
227.618	0.229095
229.428	0.213923
231.236	-0.47784
233.045	0.687999
234.855	-0.0761042
236.663	-0.0431738
238.471	0.256733
240.278	0.462578
242.085	0.236654
243.891	0.25297
245.698	0.510377
247.503	0.18671
249.309	0.222113
251.116	0.543822
252.921	0.282941
254.725	0.213208
256.529	0.263419
258.333	0.74798
260.136	0.342342
261.939	0.468634
263.742	-0.0539799
265.544	0.2434
267.346	0.131358
269.148	0.211601
270.949	0.652491
272.75	0.368736
274.55	0.227986
276.351	-0.0833197
278.15	0.278236
279.95	1.07078
281.749	0.415845
283.548	0.336949
285.346	-0.151899
287.144	1.13535
288.942	0.237906
290.739	0.708203
292.536	0.317234
294.333	0.430597
296.129	-0.052494
297.925	0.493442
299.721	0.465985
301.514	0.438203
303.309	-0.378442
305.104	0.379326
306.898	0.515063
308.692	0.674087
310.486	0.452152
312.279	0.850733
314.072	0.179167
315.862	0.723843
317.654	0.936984
319.446	0.770596
321.238	0.509863
323.029	0.440338
324.819	0.872159
326.608	0.874709
328.398	0.996389
330.188	0.926146
331.977	0.734865
333.766	0.780778
335.553	0.345738
337.341	0.913237
339.129	0.497364
340.917	0.653948
342.704	0.0683975
344.489	0.367222
346.275	0.881172
348.062	0.344795
349.845	0.334294
351.631	0.634035
353.416	0.40802
355.201	-0.12913
356.984	0.596445
358.768	0.223644
360.552	0.278693
362.333	0.118446
364.116	0.124043
365.899	0.390148
367.68	0.96344
369.462	0.609874
371.243	1.06138
373.023	0.588321
374.804	0.304917
376.585	0.376214
378.363	0.164828
380.143	0.567187
381.923	0.0284433
383.7	-0.108429
385.479	-0.384997
387.256	0.185707
389.034	-0.135607
390.812	0.0608215
392.588	0.304895
394.365	0.0798302
396.14	0.0899048
397.916	0.452327
399.691	0.391767
401.467	0.0488567
403.24	0.268961
405.015	0.699617
406.788	0.236999
408.563	0.407778
410.335	0.437243
412.109	0.53708
413.88	-0.090167
415.654	0.292275
417.424	0.605065
419.197	0.331859
420.967	0.43432
422.739	0.160951
424.508	0.14502
426.279	0.198573
428.048	-0.0774136
429.819	-0.306933
431.587	1.01255
433.356	0.290319
435.124	0.342911
436.891	0.160749
438.66	-0.327205
440.426	0.0517426
442.194	0.0766478
443.96	-0.0881853
445.725	-0.0906773
447.492	0.443912
449.257	0.485963
451.021	0.808349
452.787	0.00998592
454.551	-0.063798
456.314	-0.0675907
458.079	0.417497
459.842	0.436444
461.604	-0.0323353
463.368	0.663012
465.13	-0.0106297
466.891	0.433993
468.654	-0.0481977
470.415	0.750097
472.175	-0.148726
473.935	-0.23441
475.696	0.609777
477.456	0.986243
479.215	0.359071
480.973	0.126884
482.733	0.104446
484.491	0.036541
486.249	0.273335
488.006	0.675601
489.765	0.404095
491.522	0.856883
493.278	0.423314
495.034	0.480273
496.789	0.70111
498.544	0.500308
500.301	-0.240687
502.056	-0.0213089
503.81	-0.131289
505.564	0.791615
507.317	0.820557
509.071	0.283309
510.825	0.379424
512.578	-0.0672703
514.33	0.378688
516.082	0.611401
517.833	0.560522
519.585	1.28437
521.335	0.26802
523.086	0.661213
524.836	0.584331
526.586	0.155614
528.335	0.59489
530.085	0.424301
531.835	0.862438
533.584	0.503383
535.332	1.1026
537.08	0.554216
538.827	0.145478
540.574	-0.00706482
542.321	0.119445
544.068	0.245251
545.814	0.231285
547.56	0.147897
549.305	-0.282791
551.05	0.144478
552.795	0.0621042
554.54	0.303584
556.282	0.198603
558.025	0.301744
559.769	-0.0786304
561.512	0.186761
563.255	0.705324
564.997	0.00551701
566.739	0.22612
568.481	0.0569811
570.223	0.256229
571.964	0.456726
573.705	0.704732
575.443	0.312277
577.183	-0.331006
578.923	-0.0322342
580.663	0.359459
582.402	-0.00662708
584.141	-0.189657
585.879	0.408129
587.615	-0.237207
589.353	0.404435
591.09	-0.588334
592.828	0.189956
594.564	0.645962
596.299	0.526838
598.035	0.56874
599.771	0.334216
601.506	-0.177139
603.242	-0.0915852
604.974	0.130441
606.709	-0.430291
608.443	-0.187449
610.177	0.00905704
611.908	-0.321762
613.642	0.242675
615.374	0.119778
617.105	0.295019
618.837	-0.057106
620.569	0.482757
622.3	0.540339
624.03	0.0254536
625.761	0.33363
627.491	0.00322819
629.219	0.542306
630.949	0.170836
632.677	0.189425
634.406	-0.361457
636.135	0.319884
637.861	0.132205
639.59	0.694991
641.318	0.20501
643.043	0.465292
644.77	-0.141418
646.495	0.618126
648.222	0.0372133
649.948	0.77794
651.672	0.409079
653.398	0.248678
655.121	0.0232677
656.846	-0.291291
658.569	0.146673
660.293	0.608014
662.015	0.0637779
663.738	0.613381
665.46	0.452327
667.183	0.472128
668.903	0.605492
670.626	0.670955
672.346	0.692726
674.067	0.41939
675.787	0.537506
677.508	0.0606565
679.226	-0.00356388
680.947	0.528886
682.665	0.416241
684.385	0.324303
686.102	0.598698
687.821	1.05586
689.538	0.222054
691.254	0.562207
692.972	0.510128
694.688	0.434278
696.406	0.656806
698.121	0.210413
699.835	0.292347
701.552	0.327032
703.266	1.02725
704.98	0.416637
706.695	0.701418
708.409	0.939481
710.121	0.672668
711.836	0.314343
713.548	0.665414
715.26	0.695719
716.973	1.09121
718.685	0.596463
720.396	0.786522
722.108	0.99918
723.818	0.824766
725.528	0.605071
727.238	0.294619
728.949	1.02815
730.658	0.535635
732.367	1.26669
734.075	0.796941
735.785	0.915833
737.493	1.32843
739.2	1.08675
740.907	0.733803
742.614	1.37377
744.322	0.866215
746.028	1.48583
747.734	1.00417
749.439	1.35639
751.144	1.2601
752.849	1.09772
754.555	1.40919
756.26	1.38487
757.963	1.6549
759.667	1.36358
761.37	1.27602
763.073	1.07611
764.775	1.14661
766.477	1.5098
768.179	1.17071
769.883	1.23612
771.584	1.70647
773.285	1.88133
774.986	0.879875
776.686	1.57481
778.386	1.90936
780.085	1.22794
781.785	1.95001
783.484	1.45067
785.182	1.22156
786.881	1.42013
788.579	1.70591
790.276	1.85224
791.974	1.58859
793.671	1.91073
795.367	1.66796
797.064	1.65197
798.76	1.43506
800.456	1.44542
802.151	1.2998
803.846	1.76223
805.541	1.05521
807.234	1.26925
808.928	1.57169
810.622	1.96227
812.315	1.76824
814.008	1.28262
815.701	1.44676
817.394	1.76716
819.086	1.52836
820.778	1.46878
822.468	1.3874
824.159	1.95354
825.85	1.76283
827.541	1.50776
829.231	1.7679
830.921	1.71947
832.609	1.78546
834.298	2.18816
835.987	1.49956
837.676	1.61341
839.364	1.79317
841.051	1.7927
842.738	0.740721
844.426	1.25202
846.113	1.6748
847.798	0.892243
849.484	1.65513
851.171	1.21259
852.857	1.06265
854.54	1.38458
856.226	1.1006
857.911	1.1297
859.593	0.572111
861.278	1.27287
862.961	1.16174
864.645	1.0041
866.327	1.07084
868.01	0.731073
869.692	1.18007
871.373	1.24543
873.055	1.28804
874.735	1.01468
876.416	0.854095
878.097	1.09975
879.776	1.16478
881.457	1.41006
883.135	1.13538
884.815	0.453255
886.495	0.672732
888.172	1.02591
889.851	1.24184
891.528	1.52359
893.206	1.1279
894.882	1.11413
896.56	1.32406
898.237	0.409664
899.912	1.49273
901.589	1.25052
903.263	0.672671
904.94	1.03468
906.614	1.44068
908.289	1.80175
909.962	1.07177
911.635	0.900453
913.31	0.974657
914.982	0.382998
916.656	0.568903
918.328	1.08685
920.001	1.67034
921.672	1.0588
923.345	1.2673
925.015	0.770353
926.685	1.20318
928.357	0.75455
930.026	1.03568
931.698	1.05266
933.366	0.937572
935.035	0.95505
936.705	1.03912
938.373	1.43285
940.041	0.614798
941.71	0.79048
943.377	0.481558
945.044	0.8345
946.712	0.546285
948.378	0.322441
950.044	0.471947
951.709	0.642193
953.376	0.371252
955.041	0.91784
956.706	0.871784
958.372	0.718764
960.036	0.303607
961.699	0.287065
963.362	1.08829
965.027	0.849309
966.69	0.673736
968.352	0.583731
970.014	0.358837
971.676	0.0446405
973.339	0.659791
975	0.988793
976.661	0.412957
978.322	0.347234
979.982	0.680478
981.642	1.01354
983.303	1.21252
984.962	0.346858
986.621	0.276102
988.28	0.203598
989.938	0.174133
991.596	0.873345
993.254	0.400944
994.911	0.171997
996.57	0.472903
998.227	0.949847
999.884	0.897132
1001.54	1.41664
1003.2	1.42882
1004.85	0.868862
1006.51	0.26562
1008.16	0.388021
1009.82	0.466688
1011.47	0.194816
1013.12	0.296322
1014.78	1.79993
1016.43	1.90124
1018.08	-0.272541
1019.74	0.574675
1021.39	0.219811
1023.04	0.128567
1024.69	0.213156
1026.34	0.014245
1028	0.492754
1029.65	0.4462
1031.3	0.573158
1032.95	0.720221
1034.6	0.363605
1036.25	0.24586
1037.9	0.214596
1039.54	0.596853
1041.19	0.304902
1042.84	0.492877
1044.49	-0.273555
1046.14	0.504616
1047.78	-0.409561
1049.43	0.0895872
1051.08	0.394585
1052.72	0.179129
1054.37	0.463751
1056.02	-0.120873
1057.66	0.0983229
1059.31	0.0997009
1060.95	-0.377926
1062.6	0.100428
1064.24	0.20821
1065.88	-0.337256
1067.53	-0.0141821
1069.17	-0.0616112
1070.81	-0.261662
1072.45	0.363178
1074.1	0.380425
1075.74	-0.165266
1077.38	0.0713367
1079.02	-0.211321
1080.66	-0.0595026
1082.3	0.33085
1083.94	0.0698318
1085.58	0.761084
1087.22	-0.305309
1088.86	0.922708
1090.5	0.351277
1092.14	0.168686
1093.78	-0.01408
1095.42	-0.714153
1097.05	0.549448
1098.69	0.433817
1100.33	0.556941
1101.96	-0.00664711
1103.6	0.701164
1105.24	0.420654
1106.87	0.829065
1108.51	0.613449
1110.14	0.654791
1111.78	0.00670624
1113.41	0.324247
1115.05	-0.282977
1116.68	0.80477
1118.31	0.111774
1119.95	0.427306
1121.58	0.807727
1123.21	1.0819
1124.85	0.757873
1126.48	0.841376
1128.11	1.07537
1129.74	0.882435
1131.37	0.519139
1133	0.92582
1134.63	0.584158
1136.26	0.00682735
1137.89	0.155178
1139.52	0.174073
1141.15	0.255973
1142.78	-0.238889
1144.41	0.141318
1146.04	0.09548
1147.66	0.0932674
1149.29	-0.0784979
1150.92	-0.0579796
1152.55	-0.0800381
1154.17	0.642706
1155.8	0.130208
1157.43	0.277451
1159.05	-0.170581
1160.68	-0.0221386
1162.3	0.595135
1163.93	0.533016
1165.55	0.428926
1167.17	-0.121911
1168.8	0.516823
1170.42	0.303411
1172.05	-0.294242
1173.67	-0.0225048
1175.29	-0.155487
1176.91	0.368369
1178.54	0.234934
1180.16	-0.342101
1181.78	0.203661
1183.4	0.474618
1185.02	-0.226641
1186.64	0.0856266
1188.26	0.205923
1189.88	0.134298
1191.5	0.734576
1193.12	-0.0138645
1194.74	0.120682
1196.36	0.0661831
1197.97	0.0755653
1199.59	0.525857
1201.21	0.141899
1202.83	0.325018
1204.44	0.51061
1206.06	1.03216
1207.68	0.741372
1209.29	0.617852
1210.91	0.305849
1212.52	0.888791
1214.14	0.385297
1215.75	0.130009
1217.37	1.16306
1218.98	0.530483
1220.59	0.708673
1222.21	1.03238
1223.82	1.37755
1225.43	1.082
1227.05	1.53344
1228.66	1.24139
1230.27	0.930303
1231.88	1.15813
1233.49	1.11852
1235.1	1.65895
1236.72	1.68405
1238.33	1.77234
1239.94	1.17907
1241.55	1.72332
1243.16	1.06755
1244.76	1.03145
1246.37	1.03568
1247.98	1.30782
1249.59	1.62047
1251.2	1.25001
1252.8	1.74863
1254.41	1.29652
1256.02	1.01106
1257.62	1.30611
1259.23	1.54047
1260.84	1.36196
1262.44	1.8051
1264.05	1.12998
1265.66	1.88381
1267.26	1.18629
1268.86	1.19236
1270.47	1.32173
1272.07	0.973085
1273.67	1.20389
1275.28	1.03974
1276.88	0.626022
1278.48	1.28889
1280.09	0.832459
1281.69	2.05253
1283.29	1.5132
1284.89	1.61596
1286.49	1.2855
1288.09	1.57639
1289.69	1.35156
1291.29	1.6026
1292.89	1.10972
1294.49	1.62844
1296.09	1.69119
1297.69	2.33013
1299.29	1.89367
1300.89	1.47671
1302.49	1.86238
1304.08	1.7524
1305.68	1.82684
1307.28	1.51035
1308.88	2.01482
1310.47	2.8256
1312.07	2.40681
1313.66	1.84656
1315.26	2.18755
1316.85	2.24323
1318.45	1.52421
1320.04	1.74395
1321.64	2.10494
1323.23	1.93448
1324.83	2.08763
1326.42	2.27943
1328.01	2.18622
1329.61	1.8914
1331.2	2.12486
1332.79	1.89566
1334.38	1.87126
1335.97	1.4048
1337.56	2.2101
1339.16	1.66329
1340.75	1.92108
1342.34	1.21017
1343.93	1.54384
1345.52	2.2971
1347.11	2.40697
1348.7	1.37683
1350.29	1.33194
1351.87	1.64989
1353.46	1.78987
1355.05	1.61144
1356.64	1.67334
1358.22	1.71477
1359.81	1.57542
1361.4	1.41506
1362.98	1.77259
1364.57	1.87014
1366.16	1.35019
1367.74	1.09054
1369.33	1.23053
1370.91	1.82967
1372.5	1.21633
1374.08	1.61909
1375.67	1.72414
1377.25	1.33185
1378.83	1.83447
1380.41	0.744164
1382	1.24429
1383.58	1.42456
1385.16	1.00729
1386.74	1.42435
1388.33	1.8213
1389.91	1.38496
1391.49	1.40632
1393.07	1.52772
1394.65	1.21318
1396.23	0.52185
1397.81	1.03939
1399.39	0.980895
1400.97	1.37697
1402.55	0.940622
1404.13	1.49389
1405.7	0.979367
1407.28	1.05918
1408.86	1.37694
1410.44	1.31977
1412.01	1.10464
1413.59	1.14566
1415.17	1.48165
1416.74	0.88953
1418.32	1.30282
1419.89	0.88864
1421.47	0.968213
1423.04	0.734405
1424.62	0.915705
1426.19	1.15735
1427.77	1.53738
1429.34	1.72032
1430.91	1.58737
1432.49	2.10259
1434.06	2.57713
1435.63	1.94951
1437.2	2.16791
1438.78	2.36737
1440.35	2.52861
1441.92	1.94414
1443.49	2.63793
1445.06	2.32988
1446.63	2.94582
1448.2	2.59883
1449.77	1.91789
1451.34	2.49569
1452.91	2.75965
1454.48	2.257
1456.05	2.18696
1457.62	2.43107
1459.18	2.10307
1460.75	2.42257
1462.32	2.1496
1463.89	2.18963
1465.45	2.11044
1467.02	1.91305
1468.59	1.81444
1470.15	1.26553
1471.72	1.75797
1473.28	1.44719
1474.85	1.84332
1476.41	0.906543
1477.98	0.832726
1479.54	1.48415
1481.1	0.880923
1482.67	0.904884
1484.23	0.909115
1485.79	0.912986
1487.36	0.171859
1488.92	1.48558
1490.48	0.917698
1492.04	1.40408
1493.61	1.02784
1495.17	0.806597
1496.73	0.565263
1498.29	0.557817
1499.85	0.2594
1501.41	0.739265
1502.97	0.57935
1504.53	0.846914
1506.09	0.959427
1507.65	0.974401
1509.2	0.853053
1510.76	0.286972
1512.32	0.704258
1513.88	0.369462
1515.43	0.420139
1516.99	0.260104
1518.55	0.810732
1520.1	0.517948
1521.66	0.819202
1523.22	0.603407
1524.77	0.69279
1526.33	0.990662
1527.88	0.791717
1529.44	0.934988
1530.99	0.698092
1532.54	0.803674
1534.1	1.11819
1535.65	1.14934
1537.21	0.557922
1538.76	1.23309
1540.31	1.00223
1541.86	1.24288
1543.42	0.937198
1544.97	1.13955
1546.52	1.43518
1548.07	1.54241
1549.62	1.51818
1551.17	1.56909
1552.72	2.18166
1554.27	1.76623
1555.82	1.59578
1557.37	1.76348
1558.92	1.82122
1560.47	1.76913
1562.02	1.70018
1563.56	2.13618
1565.11	1.32281
1566.66	2.11422
1568.21	1.58046
1569.75	1.90479
1571.3	1.81807
1572.85	2.34706
1574.39	2.20387
1575.94	2.11671
1577.49	2.06711
1579.03	1.94328
1580.57	2.62302
1582.12	2.29538
1583.66	2.36085
1585.21	2.59542
1586.75	2.68117
1588.3	2.44919
1589.84	2.32907
1591.38	2.67632
1592.92	2.3679
1594.47	2.35864
1596.01	1.61871
1597.55	2.07824
1599.09	2.68884
1600.63	2.7943
1602.17	1.81185
1603.71	2.0114
1605.25	2.06012
1606.79	2.1262
1608.33	2.24657
1609.87	1.85696
1611.41	2.72384
1612.95	1.84125
1614.49	1.69018
1616.03	1.53881
1617.57	2.11913
1619.1	2.15676
1620.64	1.87764
1622.18	1.65634
1623.72	1.82915
1625.25	2.37635
1626.79	1.48148
1628.32	1.3154
1629.86	1.54074
1631.39	1.95162
1632.93	1.74521
1634.46	2.23002
1636	1.95023
1637.53	2.10065
1639.07	2.13978
1640.6	2.17895
1642.13	2.34783
1643.67	2.75742
1645.2	2.34638
1646.73	1.8233
1648.26	2.11822
1649.8	2.22743
1651.33	1.9293
1652.86	2.11507
1654.39	2.46877
1655.92	2.19277
1657.45	2.38011
1658.98	2.12196
1660.51	1.38136
1662.04	2.30512
1663.57	1.61808
1665.1	1.81808
1666.63	2.36877
1668.16	2.44032
1669.68	2.14478
1671.21	1.98012
1672.74	1.87203
1674.27	2.2433
1675.79	2.31958
1677.32	1.80602
1678.85	1.58605
1680.37	1.75131
1681.9	2.06255
1683.42	1.52835
1684.95	1.01326
1686.47	1.81958
1688	1.56236
1689.52	1.04938
1691.05	1.28788
1692.57	1.19681
1694.09	1.21552
1695.62	0.959805
1697.14	1.21572
1698.66	0.557931
1700.18	0.886012
1701.71	0.830156
1703.23	1.55746
1704.75	0.698778
1706.27	0.914535
1707.79	0.711507
1709.31	0.926505
1710.83	0.705658
1712.35	0.648555
1713.87	0.772882
1715.39	0.51691
1716.91	1.21996
1718.43	0.837334
1719.95	0.220521
1721.47	0.940056
1722.99	0.631357
1724.5	0.81054
1726.02	0.342546
1727.54	0.632271
1729.06	0.724824
1730.57	0.436114
1732.09	0.572811
1733.61	0.688416
1735.12	0.995258
1736.64	0.758805
1738.15	0.877957
1739.67	0.656409
1741.18	0.82146
1742.7	0.489344
1744.21	0.275195
1745.72	0.543606
1747.24	0.551468
1748.75	0.607896
1750.26	0.81663
1751.77	0.435684
1753.29	0.355474
1754.8	0.752251
1756.31	0.261748
1757.82	0.509435
1759.33	0.341573
1760.84	0.167238
1762.36	0.47114
1763.87	0.979113
1765.38	0.381332
1766.89	0.440621
1768.4	0.522779
1769.91	0.745068
1771.41	0.347036
1772.92	0.52608
1774.43	0.256989
1775.94	0.118029
1777.45	0.0267544
1778.95	0.632465
1780.46	0.122705
1781.97	0.233497
1783.48	-0.0102034
1784.98	-0.0195675
1786.49	0.155625
1787.99	0.230881
1789.5	-0.151885
1791.01	0.336219
1792.51	0.499216
1794.01	0.356946
1795.52	-0.00994205
1797.02	0.0894766
1798.53	0.00918293
1800.03	0.250365
1801.53	0.188923
1803.04	0.141966
1804.54	0.0531807
1806.04	0.0508795
1807.54	0.324757
1809.05	-0.106956
1810.55	0.252869
1812.05	0.105133
1813.55	0.175319
1815.05	0.0218592
1816.55	0.111377
1818.05	0.332757
1819.55	0.0571508
1821.05	0.235422
1822.55	-0.0174513
1824.05	0.118689
1825.55	-0.089757
1827.05	-0.421189
1828.55	-0.18344
1830.04	-0.020031
1831.54	-0.228389
1833.04	-0.0551071
1834.54	0.0495787
1836.03	-0.233756
1837.53	-0.145173
1839.03	0.0304003
1840.52	0.0338545
1842.02	0.0876274
1843.51	0.129716
1845.01	0.138529
1846.5	0.238678
1848	0.054492
1849.49	0.255986
1850.99	-0.050807
1852.48	-0.0170479
1853.97	0.310761
1855.47	0.139027
1856.96	0.43154
1858.45	0.0965805
1859.94	-0.0281916
1861.44	0.139113
1862.93	0.16925
1864.42	0.25911
1865.91	0.200185
1867.4	-0.0982723
1868.89	-0.138889
1870.38	-0.16852
1871.87	-0.156242
1873.36	0.123342
1874.85	0.0507307
1876.34	-0.259151
1877.83	-0.0355148
1879.32	0.370196
1880.81	0.232834
1882.3	0.501125
1882.57	0.573771
1884.07	0.173926
1885.56	-0.208958
1887.06	0.086978
1888.55	0.277703
1890.04	-0.0187235
1891.54	0.381677
1893.03	0.34869
1894.52	0.282668
1896.02	0.183303
1897.51	0.241174
1899	0.194554
1900.49	-0.131409
1901.98	0.323943
1903.47	0.273114
1904.96	0.290498
1906.45	0.446123
1907.94	0.236909
1909.43	0.16733
1910.92	0.237478
1912.41	0.256375
1913.9	0.223745
1915.39	0.26055
1916.88	-0.136408
1918.37	0.367596
1919.85	-0.030097
1921.34	-0.115839
1922.83	0.127843
1924.32	0.164471
1925.8	0.0290251
1927.29	0.36197
1928.78	0.158807
1930.26	-0.373488
1931.75	0.565366
1933.23	0.152135
1934.72	-0.210628
1936.2	0.169349
1937.69	-0.00546932
1939.17	-0.0422411
1940.66	0.02491
1942.14	0.351618
1943.63	-0.407749
1945.11	0.437884
1946.59	0.300697
1948.07	-0.319179
1949.56	0.593858
1951.04	0.0760412
1952.52	0.160192
1954	0.157732
1955.48	0.189571
1956.96	-0.0530214
1958.45	0.271645
1959.93	0.15064
1961.41	0.0645227
1962.89	0.201455
1964.37	0.0982246
1965.85	0.165852
1967.32	0.23276
1968.8	-0.162835
1970.28	0.227803
1971.76	-0.0143213
1973.24	0.0510626
1974.72	-0.412283
1976.19	0.52274
1977.67	0.230328
1979.15	0.517091
1980.63	0.599319
1982.1	0.324299
1983.58	-0.273356
1985.05	-0.106666
1986.53	0.0934591
1988	-0.14735
1989.48	-0.150446
1990.95	0.59164
1992.43	0.386598
1993.9	0.301032
1995.38	0.435971
1996.85	0.165762
1998.32	-0.256328
1999.8	0.148687
2001.27	0.215314
2002.74	0.0790186
2004.22	0.431602
2005.69	0.00907803
2007.16	0.345523
2008.63	0.0259171
2010.1	0.582661
2011.57	-0.0891104
2013.04	0.232342
2014.51	0.368173
2015.98	0.234015
2017.45	0.603628
2018.92	0.333343
2020.39	0.180412
2021.86	0.161853
2023.33	0.714296
2024.8	0.193214
2026.27	0.159997
2027.74	0.51385
2029.2	-0.0702009
2030.67	0.420449
2032.14	0.660506
2033.61	0.313596
2035.07	-0.201552
2036.54	0.240143
2038.01	0.647976
2039.47	0.232071
2040.94	0.303437
2042.4	0.459252
2043.87	0.32992
2045.33	0.251787
2046.8	0.713019
2048.26	0.383267
2049.72	-0.0145969
2051.19	0.294405
2052.65	0.298581
2054.12	0.604644
2055.58	0.571747
2057.04	-0.052434
2058.5	0.519508
2059.97	0.265513
2061.43	-0.324653
2062.89	0.0625324
2064.35	0.39994
2065.81	-0.0359449
2067.27	-0.0167007
2068.73	0.17135
2070.19	0.342872
2071.65	0.362955
2073.11	0.18084
2074.57	0.554123
2076.03	0.657687
2077.49	-0.0811172
2078.95	0.341669
2080.41	0.393525
2081.87	0.124953
2083.32	0.529165
2084.78	0.579082
2086.24	0.157272
2087.7	0.390975
2089.15	0.489622
2090.61	0.0672665
2092.07	-0.170065
2093.52	0.213583
2094.98	-0.00715065
2096.43	0.358503
2097.89	0.605818
2099.34	0.316657
2100.8	0.345371
2102.25	0.374246
2103.71	0.453925
2105.16	0.451234
2106.61	0.366382
2108.07	0.0823641
2109.52	0.549105
2110.97	0.848361
2112.43	0.812861
2113.88	0.809065
2115.33	0.104932
2116.78	0.0661588
2118.23	0.509421
2119.68	0.621262
2121.13	0.402958
2122.59	0.800186
2124.04	0.0544
2125.49	0.735275
2126.94	0.404397
2128.39	0.768881
2129.83	0.220497
2131.28	0.499525
2132.73	0.79408
2134.18	0.608542
2135.63	0.324726
2137.08	0.620941
2138.53	0.571644
2139.97	0.722372
2141.42	0.262984
2142.87	0.69731
2144.31	0.17301
2145.76	0.955855
2147.21	0.894623
2148.65	0.783044
2150.1	0.985347
2151.54	0.639999
2152.99	0.840477
2154.43	0.891067
2155.88	0.808685
2157.32	0.66013
2158.77	0.512235
2160.21	0.763094
2161.65	0.733917
2163.1	0.640049
2164.54	0.613775
2165.98	0.571574
2167.43	0.844866
2168.87	0.668649
2170.31	1.03949
2171.75	0.743165
2173.19	0.295293
2174.64	0.511636
2176.07	0.610995
2177.52	1.00978
2178.96	0.461517
2180.4	0.46278
2181.84	1.01349
2183.28	0.700106
2184.72	0.952363
2186.15	0.788864
2187.59	0.874897
2189.03	0.428425
2190.47	0.797383
2191.91	0.866539
2193.35	0.568702
2194.78	0.486088
2196.22	0.75142
2197.66	0.731905
2199.09	0.943624
2200.53	1.08762
2201.97	0.866038
2203.4	0.695158
2204.84	0.542054
2206.27	0.622036
2207.71	0.652694
2209.14	0.583769
2210.58	0.348678
2212.01	0.857263
2213.45	0.389284
2214.88	0.582525
2216.31	0.87509
2217.75	0.805423
2219.18	0.506087
2220.61	0.58688
2222.05	0.436972
2223.48	0.40182
2224.91	0.694753
2226.34	0.67309
2227.78	0.255365
2229.21	0.461365
2230.64	0.584195
2232.07	0.296908
2233.5	0.288761
2234.93	0.65735
2236.36	0.176836
2237.79	0.237184
2239.22	0.935459
2240.65	0.60745
2242.08	0.118119
2243.5	0.233352
2244.93	0.658792
2246.36	0.6432
2247.79	0.691342
2249.22	0.623308
2250.64	0.113432
2252.07	0.595654
2253.5	0.702242
2254.92	0.565234
2256.35	0.381091
2257.78	0.961948
2259.2	0.279754
2260.63	0.476364
2262.05	0.642819
2263.48	0.339881
2264.9	0.394341
2266.33	0.546077
2267.75	0.518259
2269.18	0.326806
2270.6	0.508928
2272.02	0.430145
2273.45	0.64432
2274.87	0.59802
2276.29	0.714821
2277.71	0.147307
2279.14	0.541392
2280.56	0.70732
2281.98	0.17183
2283.4	0.0275497
2284.82	0.519662
2286.24	0.48988
2287.66	0.47674
2289.08	0.480321
2290.5	0.435245
2291.92	0.0797744
2293.34	0.312858
2294.76	0.0552564
2296.18	0.61579
2297.6	0.374326
2299.02	0.673328
2300.44	0.218819
2301.86	0.45285
2303.27	0.342831
2304.69	0.495471
2306.11	0.303289
2307.53	-0.415221
2308.94	0.624065
2310.36	0.463163
2311.78	-0.241042
2313.19	0.913618
2314.61	0.258838
2316.02	0.394623
2317.44	0.48182
2318.85	0.256293
2320.27	-0.0521965
2321.68	0.166055
2323.1	0.201184
2324.51	0.465253
2325.92	0.644641
2327.34	0.855278
2328.75	0.488165
2330.16	0.731081
2331.58	0.694732
2332.99	-0.0646758
2334.4	-0.0989485
2335.81	0.261793
2337.23	0.325894
2338.64	0.142442
2340.05	0.336033
2341.46	0.167266
2342.87	0.228
2344.28	0.272228
2345.69	-0.109464
2347.1	0.18109
2348.51	0.111188
2349.92	0.531752
2351.33	0.248099
2352.74	0.159966
2354.15	0.625879
2355.55	0.421933
2356.96	0.152985
2358.37	0.339966
2359.78	0.152977
2361.19	-0.0822234
2362.59	0.136998
2364	0.128904
2365.41	0.0398808
2366.81	0.258265
2368.22	0.363752
2369.62	0.292561
2371.03	0.303295
2372.44	-0.11973
2373.84	0.150957
2375.24	0.405637
2376.65	0.160965
2378.05	0.285376
2379.46	0.0868263
2380.86	0.51313
2382.26	0.616535
2383.67	0.0141859
2385.07	0.436789
2386.47	0.355502
2387.88	0.275244
2389.28	-0.274079
2390.68	0.166333
2392.08	0.177327
2393.48	0.427874
2394.89	0.0427895
2396.29	-0.0392823
2397.69	-0.0412788
2399.09	0.132014
2400.49	-0.250332
2401.89	0.273076
2403.29	0.0499415
2404.69	0.0488329
2406.09	0.300898
2407.48	-0.0827498
2408.88	0.310344
2410.28	0.116265
2411.68	0.049335
2413.08	0.125741
2414.48	0.393248
2415.87	-0.145326
2417.27	0.188021
2418.67	0.411424
2420.06	0.255136
2421.46	0.383799
2422.86	0.290365
2424.25	0.291723
2425.65	-0.0713177
2427.04	0.136575
2428.44	0.456341
2429.83	-0.11094
2431.23	-0.13861
2432.62	0.38945
2434.02	0.123382
2435.41	0.428007
2436.81	-0.0312939
2438.2	0.016417
2439.59	-0.207077
2440.99	0.426259
2442.38	0.344341
2443.77	0.373297
2445.16	0.513086
2446.56	0.398945
2447.95	0.332319
2449.34	-0.256972
2450.73	-0.101393
2452.12	-0.198686
2453.51	0.432631
2454.9	0.44749
2456.29	-0.0431976
2457.68	0.130818
2459.07	0.273023
2460.46	-0.0123339
2461.85	-0.108581
2463.24	0.489954
2464.63	0.0289721
2466.02	0.152418
2467.4	0.133609
2468.79	0.209438
2470.18	0.237696
2471.57	-0.380754
2472.95	-0.337482
2474.34	0.193058
2475.73	0.250344
2477.12	0.0871658
2478.5	0.363926
2479.89	0.248117
2481.27	0.13265
2482.66	0.252301
2484.04	0.449578
2485.43	0.270317
2486.81	-0.0658727
2488.2	0.190652
2489.58	-0.0683928
2490.97	-0.0156198
2492.35	0.348385
2493.73	0.355452
2495.12	0.0380335
2496.5	-0.0606894
2497.88	0.166756
2499.27	0.254823
2500.65	0.125905
2502.03	-0.0499067
2503.41	-0.179974
2504.79	-0.24888
2506.17	0.113229
2507.56	-0.0181565
2508.94	-0.272105
2510.32	0.0277209
2511.7	-0.0253167
2513.08	0.0604029
2514.46	0.116146
2515.84	0.356286
2517.22	0.15326
2518.59	0.0426984
2519.97	-0.143995
2521.35	0.0358071
2522.73	0.245322
2524.11	0.148732
2525.49	-0.344597
2526.86	0.106748
2528.24	-0.324714
2529.62	0.0665059
2530.99	0.245987
2532.37	0.199017
2533.75	0.198916
2535.12	-0.165146
2536.5	-0.286161
2537.88	-0.0735559
2539.25	0.320371
2540.63	-0.000258446
2542	-0.0326171
2543.38	-0.110187
2544.75	-0.126254
2546.12	-0.126023
2547.5	0.31521
2548.87	-0.243969
2550.24	-0.181149
2551.62	-0.240147
2552.99	0.109811
2554.36	-0.330287
2555.74	0.427538
2557.11	-0.150237
2558.48	0.0910206
2559.85	-0.137521
2561.22	0.210472
2562.59	0.119488
2563.96	0.135148
2565.34	0.166368
2566.71	0.228139
2568.08	0.062686
2569.45	-0.117918
2570.82	-0.056015
2572.18	0.0817327
2573.55	0.0528469
2574.92	0.175653
2576.29	0.0256257
2577.66	-0.0183511
2579.03	0.286225
2580.4	0.0294633
2581.77	-0.0305357
2583.13	-0.121173
2584.5	-0.0149083
2585.87	0.364151
2587.23	0.106688
2588.6	-0.105077
2589.97	-0.0439181
2591.33	0.138355
2592.7	0.229253
2594.06	0.0012598
2595.43	-0.303237
2596.79	0.208966
2598.16	-0.339002
2599.52	-0.266779
2600.89	0.440084
2602.25	0.210362
2603.62	-0.24492
2604.98	-0.125926
2606.34	0.430606
2607.71	0.142027
2609.07	0.00362778
2610.43	-0.195956
2611.79	0.235667
2613.16	-0.296803
2614.52	-0.513473
2615.88	-0.0546679
2617.24	0.0137062
2618.6	-0.216992
2619.96	0.451218
2621.32	0.177119
2622.68	0.322287
2624.04	0.109123
2625.4	0.0155778
2626.76	0.02632
2628.12	0.200669
2629.48	-0.0275173
2630.84	0.0420318
2632.2	-0.260252
2633.56	-0.146177
2634.92	-0.0916576
2636.28	0.170379
2637.63	0.0615578
2638.99	-0.18027
2640.35	0.125831
2641.71	0.076931
2643.06	-0.0898037
2644.42	0.0686359
2645.77	0.226794
2647.13	0.192715
2648.49	0.231703
2649.84	0.0197124
2651.2	0.175038
2652.55	0.241677
2653.91	0.0883694
2655.26	0.507705
2656.62	0.151211
2657.97	0.162223
2659.33	0.144811
2660.68	0.113181
2662.03	0.359118
2663.39	0.0638275
2664.74	0.147662
2666.09	-0.308936
2667.44	-0.298878
2668.8	0.00233793
2670.15	0.230597
2671.5	0.0810189
2672.85	0.193788
2674.2	-0.0705347
2675.55	0.464257
2676.91	0.172163
2678.26	0.0259652
2679.61	0.301141
2680.96	-0.539119
2682.31	0.11508
2683.66	0.379001
2685	-0.0377688
2686.35	-0.106133
2687.7	0.405886
2689.05	-0.215316
2690.4	0.105524
2691.75	0.177893
2693.1	0.234324
2694.44	0.0578337
2695.79	-0.0316372
2697.14	0.0389161
2698.49	0.240957
2699.83	0.111486
2701.18	-0.00188446
2702.52	0.0164409
2703.87	0.137178
2705.22	0.359988
2706.56	0.380012
2707.91	0.240195
2709.25	0.172482
2710.6	0.612667
2711.94	0.370152
2713.29	0.229083
2714.63	0.0733571
2715.97	0.135597
2717.32	0.226844
2718.66	0.463404
2720.01	0.0740418
2721.35	0.630109
2722.69	0.137917
2724.03	0.2129
2725.38	0.272949
2726.72	0.332662
2728.06	0.188337
2729.4	0.465852
2730.74	0.0593185
2732.08	-0.0125022
2733.42	0.075808
2734.76	0.135191
2736.1	0.136589
2737.44	-0.167294
2738.78	0.241459
2740.12	-0.0771542
2741.46	0.519907
2742.8	0.345705
2744.14	0.28721
2745.48	0.11198
2746.82	0.444761
2748.16	0.573899
2749.49	0.485361
2750.83	-0.255522
2752.17	0.236697
2753.51	0.32301
2754.84	-0.0541677
2756.18	0.220789
2757.52	0.133772
2758.85	0.36553
2760.19	0.264693
2761.53	0.164364
2762.86	0.021102
2764.2	0.0517855
2765.53	0.516509
2766.87	0.329717
2768.2	-0.320717
2769.54	0.199265
2770.87	0.0671668
2772.2	0.338352
2773.54	-0.142118
2774.87	0.0409141
2776.2	-0.150865
2777.54	0.0897636
2778.87	-0.215919
2780.2	0.398993
2781.53	0.108684
2782.87	0.220674
2784.2	0.619306
2785.53	0.358147
2786.86	0.269407
2788.19	0.181269
2789.52	0.0939679
2790.85	0.293617
2792.18	0.293704
2793.51	-0.106034
2794.84	0.0661173
2796.17	-0.133599
2797.5	0.194817
2798.83	-0.177116
2800.16	-0.120952
2801.49	0.0918527
2802.82	0.104677
2804.15	0.0317583
2805.47	0.243371
2806.8	-0.0866723
2808.13	0.251647
2809.46	0.645939
2810.78	-0.295169
2812.11	0.227289
2813.44	0.182857
2814.76	0.281588
2816.09	0.268214
2817.42	0.36927
2818.74	0.0314832
2820.07	0.274817
2821.39	0.390172
2822.72	-0.0477753
2824.04	0.477303
2825.37	0.279455
2826.69	0.478266
2828.02	0.0545287
2829.34	0.254327
2830.66	0.412055
2831.99	0.385948
2833.31	0.657039
2834.63	0.573953
2835.96	0.900829
2837.28	0.816761
2838.6	0.562576
2839.92	0.803303
2841.24	0.945052
2842.57	0.974069
2843.89	1.37116
2845.21	1.6841
2846.53	0.923588
2847.85	1.70387
2849.17	1.32526
2850.49	1.58239
2851.81	1.66943
2853.13	1.61463
2854.45	1.71493
2855.77	1.73025
2857.09	1.97158
2858.41	2.28352
2859.72	1.76214
2861.04	2.11618
2862.36	2.32861
2863.68	2.82285
2865	2.75217
2866.31	2.31476
2867.63	2.93553
2868.95	2.48488
2870.26	2.78198
2871.58	3.30466
2872.9	3.44635
2874.21	3.69992
2875.53	3.62825
2876.84	3.4147
2878.16	3.59452
2879.47	3.63323
2880.79	3.70035
2882.1	3.66992
2883.42	3.34568
2884.73	2.98048
2886.05	3.65481
2887.36	2.99559
2888.67	3.66921
2889.99	3.68236
2891.3	3.45627
2892.61	3.49603
2893.92	3.25544
2895.24	3.99558
2896.55	3.63021
2897.86	4.09173
2899.17	3.88254
2900.48	4.16382
2901.79	3.76009
2903.11	4.06996
2904.42	3.98829
2905.73	4.24259
2907.04	4.38555
2908.35	4.33351
2909.66	4.45018
2910.97	4.37154
2912.27	5.09067
2913.58	5.05323
2914.89	5.2943
2916.2	5.30951
2917.51	4.9032
2918.82	5.65733
2920.13	5.4178
2921.43	5.76636
2922.74	6.28381
2924.05	6.34137
2925.35	6.1625
2926.66	6.36168
2927.97	5.75006
2929.27	6.27034
2930.58	5.72753
2931.89	6.07891
2933.19	6.16437
2934.5	6.64112
2935.8	6.55886
2937.11	6.09944
2938.41	6.46471
2939.72	6.42499
2941.02	5.93864
2942.32	5.99814
2943.63	5.87721
2944.93	5.4221
2946.24	5.45736
2947.54	4.98952
2948.84	5.19286
2950.14	4.86306
2951.45	4.34926
2952.75	4.67368
2954.05	4.66061
2955.35	4.46518
2956.65	4.5506
2957.95	4.42809
2959.26	4.02815
2960.56	4.87734
2961.86	4.48194
2963.16	4.47948
2964.46	3.94285
2965.76	3.82553
2967.06	4.45131
2968.36	3.68436
2969.66	4.13961
2970.96	3.56814
2972.25	3.48905
2973.55	3.73386
2974.85	3.79574
2976.15	3.42045
2977.45	3.56473
2978.74	3.34115
2980.04	2.89065
2981.34	2.91753
2982.64	2.67658
2983.93	2.647
2985.23	2.9698
2986.52	2.56318
2987.82	2.66384
2989.12	2.63893
2990.41	1.85528
2991.71	1.8159
2993	2.1971
2994.3	2.08512
2995.59	1.78946
2996.89	1.33885
2998.18	1.88472
2999.48	1.82712
3000.77	1.46154
3002.06	1.60129
3003.36	1.1948
3004.65	1.58702
3005.94	1.61456
3007.23	1.47342
3008.53	1.40146
3009.82	1.31466
3011.11	0.975684
3012.4	1.11141
3013.69	1.00971
3014.99	1.11756
3016.28	0.766148
3017.57	1.11187
3018.86	0.622746
3020.15	0.954622
3021.44	0.354403
3022.73	0.587438
3024.02	0.54159
3025.31	0.730729
3026.6	0.559118
3027.89	0.678769
3029.18	0.923587
3030.46	0.229879
3031.75	0.822472
3033.04	0.821847
3034.33	0.642002
3035.62	0.199571
3036.9	0.721382
3038.19	0.923831
3039.48	0.449678
3040.76	1.00585
3042.05	0.269452
3043.34	0.466921
3044.62	0.500304
3045.91	0.452996
3047.19	0.762859
3048.48	0.528311
3049.77	0.527855
3051.05	0.392284
3052.34	0.598496
3053.62	0.586261
3054.9	0.696074
3056.19	0.695625
3057.47	0.912132
3058.76	0.827801
3060.04	0.593426
3061.32	0.767798
3062.61	0.602771
3063.89	0.92854
3065.17	0.548615
3066.45	0.591366
3067.74	0.66212
3069.02	0.637939
3070.3	0.803768
3071.58	0.655824
3072.86	0.493013
3074.14	0.369765
3075.42	0.449441
3076.7	0.202689
3077.99	0.227903
3079.26	0.498173
3080.54	0.254095
3081.82	0.201269
3083.1	0.366499
3084.38	0.247324
3085.66	0.318016
3086.94	0.0352635
3088.22	0.34892
3089.5	0.200313
3090.78	0.200446
3092.05	0.037509
3093.33	-0.111802
3094.61	0.173013
3095.89	-0.0438423
3097.16	-0.220029
3098.44	0.281302
3099.72	0.37562
3100.99	0.266453
3102.27	-0.00525808
3103.54	-0.0871844
3104.82	0.115475
3106.1	0.00731611
3107.37	-0.289603
3108.65	-0.179769
3109.92	0.242217
3111.2	-0.025383
3112.47	-0.157184
3113.74	0.131212
3115.02	0.148522
3116.29	0.192348
3117.56	-0.225938
3118.84	-0.11647
3120.11	-0.0217538
3121.38	-0.0772357
3122.66	-0.390874
3123.93	0.270689
3125.2	0.0921936
3126.47	0.238889
3127.74	0.399337
3129.01	-0.0215826
3130.29	-0.266353
3131.56	-0.0650268
3132.83	-0.134411
3134.1	0.254925
3135.37	-0.288267
3136.64	0.166761
3137.91	-0.201877
3139.18	0.0760684
3140.45	0.218577
3141.72	0.185856
3142.99	0.0726304
3144.26	0.255153
3145.52	-0.340298
3146.79	0.231748
3148.06	-0.000371933
3149.33	0.169771
