200.407	0.205613
202.221	0.210334
204.035	0.216073
205.849	0.0769215
207.665	-0.450643
209.478	0.237029
211.291	0.243171
213.104	0.151203
214.916	0.155546
216.73	0.256448
218.541	0.163622
220.352	-0.122018
222.163	0.0532436
223.973	0.180915
225.785	0.164157
227.595	-0.359661
229.404	-0.182959
231.213	0.548352
233.022	-0.240976
234.83	-0.0646372
236.638	0.0163651
238.448	-0.214011
240.255	0.160539
242.062	0.344555
243.868	-0.0488205
245.675	-0.152804
247.48	0.345528
249.286	0.0691195
251.091	-0.282398
252.896	-0.611911
254.702	-0.267091
256.506	0.703929
258.31	0.277117
260.113	0.382275
261.916	0.441133
263.719	0.549878
265.521	0.659817
267.323	-0.0491247
269.125	0.326233
270.926	0.267141
272.727	-0.00990486
274.527	0.194087
276.328	0.854651
278.127	0.983049
279.927	0.266478
281.726	0.15067
283.525	-0.255181
285.323	0.107327
287.121	-0.17957
288.919	-0.0102615
290.716	0.0157318
292.513	0.665277
294.31	-0.31109
296.104	0.269108
297.9	-0.15385
299.696	0.594773
301.491	-0.161864
303.286	0.41842
305.081	-0.100626
306.875	0.811163
308.669	-0.0183983
310.463	0.249479
312.256	0.399223
314.047	0.0742769
315.839	0.156001
317.631	0.144245
319.423	0.419892
321.215	0.673146
323.006	0.283663
324.794	0.228292
326.585	0.244707
328.375	0.35659
330.165	0.133398
331.954	0.530827
333.741	0.233172
335.53	0.0291901
337.318	0.253876
339.106	0.835432
340.894	0.721618
342.679	0.654933
344.466	0.421047
346.253	-0.194279
348.039	0.791319
349.823	0.631104
351.608	0.13694
353.393	0.143666
355.176	0.769687
356.961	0.225659
358.745	0.109924
360.529	0.279069
362.31	0.61372
364.093	0.0673885
365.876	0.519154
367.657	1.06435
369.439	0.801465
371.221	-0.456524
373	-0.198108
374.781	-0.224181
376.56	0.0331612
378.34	0.00748634
380.12	0.124091
381.898	0.924224
383.677	0.0544653
385.456	0.150904
387.233	-0.0570259
389.011	0.25309
390.787	0.611014
392.565	0.312152
394.34	0.788939
396.117	-0.0489616
397.894	0.146603
399.668	0.412535
401.444	0.278842
403.217	0.684809
404.993	0.291541
406.766	0.179476
408.54	0.630391
410.312	0.658318
412.086	-0.135086
413.858	0.573946
415.631	0.814301
417.402	0.281179
419.174	0.452664
420.944	0.882671
422.716	0.0215626
424.486	0.0986986
426.257	-0.106679
428.025	0.485362
429.794	-0.190658
431.564	0.330444
433.332	0.335469
435.101	0.552094
436.868	-0.357801
438.637	0.820494
440.403	0.706581
442.169	0.590787
443.937	0.355792
445.703	0.28331
447.468	0.584275
449.234	0.533483
450.999	0.482891
452.765	-0.0341549
454.528	0.382914
456.292	0.682803
458.057	0.562908
459.819	-0.278101
461.582	-0.140585
463.344	0.137625
465.107	0.255217
466.868	0.166401
468.629	0.196366
470.392	0.507294
472.152	0.284053
473.912	0.735099
475.672	1.02181
477.433	1.46955
479.192	1.00686
480.951	1.1255
482.709	0.731878
484.469	0.828553
486.226	0.205018
487.984	0.5154
489.74	-0.0114708
491.499	0.348913
493.255	0.173205
495.011	0.535286
496.767	0.78095
498.522	1.02681
500.277	0.100157
502.033	0.204021
503.788	1.10581
505.541	0.691548
507.295	1.42772
509.048	1.12788
510.801	0.802692
512.553	0.122873
514.308	0.218141
516.06	0.806119
517.811	1.01632
519.562	0.731687
521.313	0.752017
523.063	0.443077
524.814	0.0638456
526.563	0.834495
528.313	0.666507
530.062	0.451739
531.811	0.143149
533.559	-0.0253601
535.308	0.483618
537.055	0.476306
538.803	0.32758
540.55	0.900984
542.297	0.726874
544.043	0.436473
545.789	0.588241
547.535	0.414896
549.281	0.520396
551.026	0.301693
552.771	0.153053
554.515	0.0280275
556.259	0.826842
558.003	0.240823
559.747	-0.021059
561.49	0.408644
563.233	-0.0588598
564.975	0.210419
566.717	0.479948
568.459	0.520357
570.2	-0.356163
571.942	0.306252
573.68	0.671768
575.421	0.511399
577.161	0.444416
578.901	0.195047
580.64	0.543361
582.379	0.317686
584.118	0.229244
585.855	-0.182192
587.593	0.141119
589.331	-0.594905
591.068	-0.50359
592.805	0.714626
594.54	0.184101
596.277	-0.139312
598.013	0.112427
599.749	0.432857
601.484	0.292392
603.217	-0.0791855
604.952	0.00791836
606.687	0.691153
608.421	0.660923
610.153	-0.034996
611.886	0.508946
613.619	0.181858
615.35	0.520345
617.083	0.42347
618.815	0.0742855
620.547	0.365361
622.276	0.334667
624.008	0.120281
625.738	0.431568
627.467	-0.192609
629.197	0.463552
630.927	0.688087
632.655	0.686451
634.384	0.0012064
636.113	0.913386
637.839	0.431582
639.568	0.654804
641.293	0.601246
643.021	0.11233
644.748	0.920854
646.473	0.636249
648.2	0.285674
649.924	0.415581
651.65	0.0946207
653.376	0.186297
655.099	0.235703
656.824	0.0824509
658.546	0.40847
660.271	0.620746
661.993	0.37518
663.716	0.081377
665.438	-0.0320797
667.161	0.241378
668.881	0.834373
670.604	0.261508
672.324	0.37663
674.045	0.860575
675.765	0.659781
677.486	-0.205492
679.204	0.351593
680.925	0.70199
682.643	0.890208
684.361	0.662223
686.08	0.685369
687.797	0.384521
689.516	-0.23995
691.232	0.0101795
692.95	0.674353
694.666	0.969199
696.382	1.23995
698.099	1.62445
699.813	0.488633
701.528	0.042757
703.244	0.607795
704.958	0.160825
706.673	0.792658
708.387	1.01033
710.099	1.20435
711.814	1.12293
713.526	0.721109
715.238	1.25676
716.949	1.19774
718.663	0.614221
720.374	0.920776
722.084	0.703188
723.796	0.577015
725.506	0.905622
727.216	1.23337
728.925	0.833941
730.636	0.820205
732.345	0.489056
734.053	0.633492
735.761	0.257808
737.471	0.967024
739.178	0.637792
740.885	1.07644
742.592	0.614525
744.298	0.987442
746.006	1.45134
747.712	1.33139
749.417	1.84261
751.122	1.27545
752.827	1.36185
754.532	1.24715
756.236	1.04381
757.942	1.33713
759.645	1.27171
761.348	1.52297
763.051	1.84282
764.753	1.82422
766.456	1.75927
768.158	1.85064
769.859	1.35196
771.56	1.5295
773.261	2.29352
774.964	1.22542
776.664	1.4693
778.364	2.09882
780.064	1.39571
781.763	1.75664
783.462	2.20851
785.16	2.0257
786.859	1.43301
788.557	0.973213
790.255	2.16192
791.952	1.67369
793.649	1.47819
795.346	1.75644
797.042	2.41818
798.738	1.52656
800.434	1.5157
802.127	1.48376
803.823	1.8798
805.517	1.42116
807.212	1.99573
808.906	1.96217
810.6	1.4113
812.293	1.82453
813.987	1.20585
815.68	1.3267
817.372	1.62622
819.064	1.76885
820.754	3.22891
822.446	3.19202
824.137	2.35335
825.828	1.04928
827.519	1.75313
829.209	1.56845
830.897	1.94351
832.587	1.58636
834.276	1.65452
835.966	1.38921
837.654	1.21271
839.341	1.83877
841.029	1.57031
842.717	1.30036
844.404	1.85658
846.091	1.6537
847.776	2.52566
849.463	1.56641
851.149	1.32476
852.833	1.21902
854.519	1.33837
856.204	1.43537
857.889	1.66642
859.572	1.49119
861.256	1.2914
862.94	1.87827
864.622	1.40512
866.305	1.40411
867.988	1.71814
869.669	1.08459
871.351	0.85651
873.033	0.921442
874.713	1.00887
876.395	1.14144
878.074	1.04836
879.755	1.29373
881.435	1.2679
883.114	1.10593
884.794	1.0332
886.471	0.959175
888.15	1.56054
889.829	1.07737
891.506	1.15672
893.184	0.536521
894.861	1.17629
896.538	1.02705
898.214	0.764845
899.891	1.3547
901.566	0.710123
903.242	0.424582
904.916	0.854734
906.592	1.842
908.266	1.2223
909.941	1.25065
911.614	0.901632
913.288	0.842873
914.961	0.473717
916.635	1.45847
918.306	1.2667
919.979	2.02745
921.651	1.06185
923.321	0.983109
924.994	-0.021801
926.664	1.20606
928.336	1.13229
930.005	1.43493
931.674	1.34099
933.345	1.31353
935.014	1.06567
936.682	1.65635
938.352	1.47589
940.019	0.987831
941.687	0.942012
943.356	0.985146
945.022	0.630905
946.689	0.981874
948.357	0.580626
950.022	0.883901
951.688	0.0827007
953.355	1.31106
955.02	0.864407
956.684	0.596813
958.348	0.993886
960.014	-0.0185776
961.678	0.846537
963.341	0.740252
965.004	0.632281
966.669	0.765093
968.331	0.629768
969.993	0.780033
971.655	0.509103
973.316	0.835739
974.979	1.07519
976.64	0.807745
978.3	1.13894
979.961	0.950982
981.62	0.762562
983.28	0.694558
984.941	1.17813
986.6	1.08407
988.259	1.09888
989.917	0.537475
991.575	1.34623
993.233	0.674008
994.89	0.664864
996.547	0.633771
998.204	0.845222
999.86	0.703623
1001.52	0.826066
1003.17	1.05796
1004.83	0.21162
1006.49	0.421178
1008.14	1.37715
1009.79	1.05931
1011.45	0.654601
1013.1	0.776823
1014.76	0.921176
1016.41	0.562237
1018.06	0.379195
1019.72	0.0439625
1021.37	0.999862
1023.02	0.819668
1024.67	0.400087
1026.32	0.549332
1027.97	0.611177
1029.62	0.912729
1031.27	0.754312
1032.92	0.528962
1034.57	0.651334
1036.22	0.881203
1037.87	0.717752
1039.52	0.902715
1041.17	0.457218
1042.82	0.643929
1044.47	1.00591
1046.11	0.869967
1047.76	0.193007
1049.41	0.712129
1051.06	0.0162125
1052.7	1.34122
1054.35	0.841888
1055.99	0.55968
1057.64	0.146647
1059.28	0.211345
1060.93	0.492905
1062.57	0.773746
1064.22	0.379631
1065.86	0.00635433
1067.5	0.827582
1069.15	0.713104
1070.79	0.663212
1072.43	0.591486
1074.08	-0.065587
1075.72	0.840483
1077.36	0.988355
1079	1.44102
1080.64	1.59088
1082.28	0.569796
1083.92	1.0007
1085.56	0.801221
1087.2	0.859879
1088.84	0.440011
1090.48	0.21376
1092.12	0.786577
1093.76	0.709891
1095.39	0.374581
1097.03	0.558012
1098.67	1.02245
1100.31	0.820666
1101.94	1.18046
1103.58	0.831922
1105.22	1.15165
1106.85	0.719144
1108.49	0.974623
1110.12	1.03543
1111.76	1.3955
1113.39	0.486128
1115.03	0.714351
1116.66	0.684213
1118.29	0.932874
1119.93	0.453448
1121.56	1.06757
1123.19	1.1899
1124.82	1.18478
1126.46	1.07362
1128.09	1.07023
1129.72	1.17448
1131.35	1.38619
1132.98	0.572057
1134.61	0.570215
1136.24	0.653252
1137.87	0.371986
1139.5	0.580992
1141.13	0.169674
1142.76	0.782497
1144.39	0.328403
1146.01	0.216474
1147.64	0.382578
1149.27	0.698559
1150.9	0.588876
1152.53	0.457962
1154.15	0.77386
1155.78	0.599652
1157.4	1.06369
1159.03	0.379223
1160.65	0.35513
1162.28	0.37464
1163.9	0.373868
1165.53	0.0972004
1167.15	0.521953
1168.78	0.66926
1170.4	0.538537
1172.02	0.490954
1173.65	0.12319
1175.27	0.26389
1176.89	0.594625
1178.51	-0.494222
1180.14	-0.204971
1181.76	0.253943
1183.38	0.18441
1185	0.0938911
1186.62	-0.187436
1188.24	0.0365353
1189.86	0.0685377
1191.48	-0.364526
1193.1	0.106174
1194.71	0.028883
1196.33	0.371099
1197.95	0.482944
1199.57	-0.198539
1201.19	0.00112629
1202.8	0.349124
1204.42	0.803604
1206.04	0.759198
1207.65	0.0903196
1209.27	0.882086
1210.88	0.504902
1212.5	0.543234
1214.12	0.891913
1215.73	0.0509892
1217.35	0.645122
1218.96	0.343446
1220.57	0.229073
1222.19	0.696239
1223.8	0.500707
1225.41	0.741775
1227.03	0.777114
1228.64	0.586309
1230.25	0.727726
1231.86	0.105429
1233.47	0.43524
1235.08	0.766201
1236.69	1.01571
1238.31	0.356712
1239.92	1.33168
1241.52	1.08702
1243.13	0.945356
1244.74	0.575269
1246.35	1.75609
1247.96	1.03214
1249.57	0.948905
1251.18	1.13429
1252.78	0.782023
1254.39	1.03034
1256	0.803991
1257.6	0.661575
1259.21	1.2238
1260.82	1.29049
1262.42	0.674394
1264.03	1.28008
1265.63	1.30556
1267.24	0.812113
1268.84	0.773613
1270.45	0.899953
1272.05	1.21186
1273.65	1.08729
1275.26	1.23121
1276.86	0.980377
1278.46	1.22602
1280.06	1.49153
1281.67	0.700942
1283.27	1.35928
1284.87	1.27315
1286.47	1.27067
1288.07	0.731891
1289.67	0.545525
1291.27	0.628338
1292.87	1.24827
1294.47	1.45413
1296.07	1.22489
1297.67	1.65476
1299.27	0.885808
1300.87	1.18839
1302.47	1.30382
1304.06	1.82965
1305.66	1.32569
1307.26	1.45891
1308.85	1.67356
1310.45	1.33441
1312.05	1.36486
1313.64	1.15057
1315.24	1.1829
1316.83	1.74699
1318.43	1.53555
1320.02	1.58935
1321.62	1.45881
1323.21	1.59146
1324.8	0.665021
1326.4	1.52587
1327.99	1.67429
1329.59	1.94432
1331.18	1.46709
1332.77	1.63972
1334.36	1.4914
1335.95	1.70824
1337.54	1.28008
1339.14	2.36351
1340.73	1.20793
1342.32	1.8833
1343.91	1.69079
1345.5	1.91911
1347.09	1.80601
1348.67	1.07403
1350.26	1.16648
1351.85	1.70145
1353.44	1.47839
1355.03	1.17694
1356.62	1.69535
1358.2	1.7336
1359.79	1.012
1361.38	1.68706
1362.96	1.06389
1364.55	1.45777
1366.14	1.21386
1367.72	1.44895
1369.31	1.14764
1370.89	1.32561
1372.48	1.02741
1374.06	0.989095
1375.64	0.891788
1377.23	0.913994
1378.81	0.756621
1380.39	0.956414
1381.98	1.27418
1383.56	1.37164
1385.14	1.24931
1386.72	1.10671
1388.3	1.16297
1389.89	1.00151
1391.47	1.53559
1393.05	1.43541
1394.63	1.29605
1396.21	1.15657
1397.79	0.659636
1399.37	0.637617
1400.95	1.50589
1402.52	1.42248
1404.1	1.04235
1405.68	1.03883
1407.26	0.443252
1408.84	0.165102
1410.42	0.381448
1411.99	1.19004
1413.57	0.517036
1415.15	1.36296
1416.72	1.16196
1418.3	0.487713
1419.87	0.838849
1421.45	0.875651
1423.02	1.13054
1424.6	0.875309
1426.17	1.15283
1427.75	0.820781
1429.32	0.626254
1430.89	1.11972
1432.47	0.923148
1434.04	1.70932
1435.61	1.49151
1437.18	1.45098
1438.76	1.54883
1440.33	1.41185
1441.9	1.5314
1443.47	1.19969
1445.04	1.79211
1446.61	1.8541
1448.18	1.36587
1449.75	2.41126
1451.32	2.0221
1452.89	2.14471
1454.46	1.63834
1456.03	1.93842
1457.6	1.76565
1459.16	1.88672
1460.73	1.57299
1462.3	1.80825
1463.87	1.37293
1465.43	1.34961
1467	1.89558
1468.56	0.949185
1470.13	1.33907
1471.7	1.10206
1473.26	0.98397
1474.83	0.768695
1476.39	0.769593
1477.96	0.927449
1479.52	1.20282
1481.08	0.615632
1482.65	1.45909
1484.21	0.813035
1485.77	1.068
1487.34	0.930362
1488.9	0.536971
1490.46	0.455198
1492.02	0.332273
1493.58	0.16836
1495.15	-0.133534
1496.71	0.285189
1498.27	0.683128
1499.83	0.61413
1501.39	0.565788
1502.95	0.809644
1504.51	0.608327
1506.07	0.272167
1507.63	0.284146
1509.18	0.56557
1510.74	0.671514
1512.3	0.198143
1513.86	0.322225
1515.41	0.388477
1516.97	-0.2552
1518.53	-0.0336905
1520.08	0.341155
1521.64	0.179641
1523.2	0.28576
1524.75	0.295424
1526.31	-0.287038
1527.86	0.540244
1529.42	0.756181
1530.97	0.306874
1532.52	0.219587
1534.08	-0.15068
1535.63	-0.159661
1537.19	0.304625
1538.74	0.919646
1540.29	0.157309
1541.84	0.300801
1543.4	0.349826
1544.95	0.304549
1546.5	1.17948
1548.05	0.0447931
1549.6	1.06794
1551.15	0.572462
1552.7	1.12606
1554.25	0.745087
1555.8	1.11319
1557.35	1.09069
1558.9	0.883673
1560.45	1.07051
1562	1.18439
1563.54	0.441289
1565.09	0.463628
1566.64	0.803336
1568.19	0.583001
1569.73	1.0342
1571.28	1.4664
1572.83	1.03964
1574.37	1.13539
1575.92	0.820476
1577.47	1.66319
1579.01	1.25557
1580.56	1.10993
1582.1	0.965041
1583.64	0.727535
1585.19	1.49979
1586.73	1.65623
1588.28	0.97129
1589.82	0.959192
1591.36	1.15255
1592.9	1.57025
1594.45	1.35106
1595.99	1.07556
1597.53	0.744078
1599.07	1.1255
1600.61	0.926456
1602.15	1.06554
1603.69	1.33621
1605.23	1.55011
1606.77	1.0862
1608.31	1.20276
1609.85	0.790715
1611.39	0.977754
1612.93	0.862147
1614.47	1.21454
1616.01	0.515665
1617.55	1.29891
1619.08	1.01458
1620.62	0.994219
1622.16	0.769316
1623.7	1.27548
1625.23	0.602279
1626.77	0.920479
1628.3	1.77977
1629.84	0.953854
1631.37	0.85659
1632.91	1.0205
1634.44	0.736486
1635.98	0.938667
1637.51	1.08565
1639.05	1.30775
1640.58	1.26884
1642.11	1.30386
1643.65	1.54254
1645.18	0.570109
1646.71	0.750987
1648.24	1.87892
1649.78	0.925942
1651.31	1.44119
1652.84	1.02979
1654.37	0.73114
1655.9	0.692838
1657.43	1.06215
1658.96	1.0415
1660.49	1.00104
1662.02	0.866673
1663.55	1.37833
1665.08	1.00197
1666.61	1.12484
1668.14	1.24863
1669.66	1.39221
1671.19	0.80023
1672.72	1.57284
1674.25	0.761847
1675.77	0.853173
1677.3	0.741219
1678.83	0.922612
1680.35	2.62878
1681.88	2.31085
1683.4	2.36016
1684.93	2.07917
1686.45	0.845272
1687.98	0.401438
1689.5	0.819467
1691.03	0.852821
1692.55	0.42871
1694.07	0.370795
1695.6	0.184794
1697.12	0.126652
1698.64	0.469992
1700.17	0.35624
1701.69	0.916913
1703.21	0.564973
1704.73	0.39509
1706.25	0.388775
1707.77	-0.126857
1709.29	0.847741
1710.81	0.259998
1712.33	0.652589
1713.85	0.555518
1715.37	0.47677
1716.89	0.126773
1718.41	0.518214
1719.93	0.493585
1721.45	-0.306679
1722.97	0.174908
1724.49	-0.0999355
1726	0.131013
1727.52	0.291064
1729.04	0.649955
1730.55	0.483853
1732.07	0.263085
1733.59	0.731777
1735.1	0.537837
1736.62	0.201047
1738.13	0.19459
1739.65	0.873903
1741.16	0.593525
1742.68	0.425836
1744.19	0.421349
1745.7	0.403095
1747.22	0.0322685
1748.73	0.508806
1750.24	-0.138767
1751.76	0.289883
1753.27	0.206856
1754.78	0.485202
1756.29	-0.0248537
1757.8	0.0481901
1759.31	0.190757
1760.83	0.107282
1762.34	0.351768
1763.85	0.158722
1765.36	0.109427
1766.87	0.16552
1768.38	-0.0114355
1769.89	0.0143929
1771.39	0.182231
1772.9	0.284368
1774.41	0.195292
1775.92	0.212819
1777.43	0.165835
1778.94	0.380463
1780.44	0.52107
1781.95	-0.10271
1783.46	0.00928783
1784.96	0.085619
1786.47	0.106992
1787.97	0.156524
1789.48	-0.0137177
1790.99	-0.0612135
1792.49	0.111715
1794	0.0536137
1795.5	0.314416
1797	-0.0142784
1798.51	-0.0148439
1800.01	0.296915
1801.51	0.253874
1803.02	0.0357924
1804.52	0.175752
1806.02	-0.0754633
1807.53	-0.0652657
1809.03	-0.0487719
1810.53	0.151316
1812.03	0.0771112
1813.53	0.220604
1815.03	0.00795078
1816.53	-0.00600719
1818.03	0.0321617
1819.53	0.478963
1821.03	0.0686607
1822.53	0.249118
1824.03	-0.0156593
1825.53	0.371899
1827.03	-0.016839
1828.53	0.10631
1830.02	0.278338
1831.52	0.12219
1833.02	-0.039958
1834.52	-0.163792
1836.01	0.273467
1837.51	0.0831604
1839.01	-0.039875
1840.5	0.113749
1842	0.133595
1843.49	0.0161686
1844.99	0.47362
1846.48	-0.113482
1847.98	0.171962
1849.47	0.297288
1850.97	-0.226691
1852.46	0.098773
1853.95	-0.0945158
1855.45	-0.297912
1856.94	-0.129777
1858.43	-0.299497
1859.93	-0.231882
1861.42	0.064291
1862.91	-0.0396013
1864.4	-0.0528297
1865.89	0.205448
1867.38	0.220028
1868.87	0.0981331
1870.36	0.188969
1871.85	0.149848
1873.34	0.00623417
1874.83	-0.0285301
1876.32	0.068862
1877.81	0.129461
1879.3	0.232718
1880.79	0.302012
1882.28	-0.185678
1882.52	-0.284456
1884.02	0.550884
1885.51	0.234715
1887.01	0.283719
1888.5	0.401793
1889.99	0.206761
1891.49	-0.0044899
1892.98	0.220629
1894.47	0.117174
1895.97	0.363003
1897.46	-0.103294
1898.95	-0.291563
1900.44	0.110654
1901.93	-0.358493
1903.42	0.0751896
1904.91	0.350698
1906.4	0.190787
1907.89	0.43041
1909.38	0.271205
1910.87	0.182471
1912.36	0.0426512
1913.85	0.180946
1915.34	0.0591764
1916.83	0.0931644
1918.32	0.0572777
1919.8	0.315524
1921.29	0.365662
1922.78	0.26034
1924.27	0.329075
1925.75	0.0354023
1927.24	0.521836
1928.73	0.0913572
1930.21	0.197556
1931.7	-0.216538
1933.18	0.0260048
1934.67	0.0936193
1936.15	0.367141
1937.64	-0.0870352
1939.12	0.236457
1940.61	0.52528
1942.09	0.296906
1943.57	0.397572
1945.06	0.11967
1946.54	0.0664263
1948.02	0.0646925
1949.51	0.527349
1950.99	0.0760212
1952.47	0.20933
1953.95	0.513844
1955.43	0.216437
1956.91	-0.0114965
1958.4	-0.461602
1959.88	0.358865
1961.36	0.407526
1962.84	0.19925
1964.32	0.0423613
1965.8	0.227615
1967.27	0.121034
1968.75	-0.482094
1970.23	0.367891
1971.71	0.6186
1973.19	0.203237
1974.67	-0.450216
1976.14	0.0223217
1977.62	0.460312
1979.1	0.0467606
1980.58	-0.0600939
1982.05	0.206997
1983.53	0.201633
1985	-0.143524
1986.48	0.156096
1987.95	-0.69716
1989.43	-0.177164
1990.9	-0.148023
1992.38	0.152594
1993.85	0.0819759
1995.33	0.248813
1996.8	0.179463
1998.27	0.127011
1999.75	0.310518
2001.22	0.223274
2002.69	0.321141
2004.16	-0.120674
2005.64	0.365005
2007.11	0.0930653
2008.58	0.681011
2010.05	0.0911007
2011.52	0.410898
2012.99	0.259395
2014.46	-0.0775995
2015.93	0.0727081
2017.4	-0.0302391
2018.87	0.0173941
2020.34	0.585305
2021.81	0.0609245
2023.28	0.326289
2024.75	0.457986
2026.22	0.607579
2027.69	0.339301
2029.15	0.189959
2030.62	0.511635
2032.09	0.280682
2033.56	0.285088
2035.02	0.356654
2036.49	0.310291
2037.96	-0.0222769
2039.42	0.0311623
2040.89	0.050952
2042.35	-0.0634003
2043.82	0.209766
2045.28	0.315759
2046.75	0.607811
2048.21	0.0919228
2049.67	0.451564
2051.14	0.304701
2052.6	0.527211
2054.07	0.30943
2055.53	0.140513
2056.99	-0.434252
2058.45	0.220742
2059.92	0.302362
2061.38	0.468518
2062.84	0.433401
2064.3	0.180533
2065.76	0.383088
2067.22	0.148926
2068.68	-0.0173635
2070.14	0.254274
2071.6	0.273514
2073.06	0.225266
2074.52	0.109389
2075.98	0.0942116
2077.44	-0.123406
2078.9	0.41639
2080.36	0.0127134
2081.82	0.0968399
2083.27	0.0961227
2084.73	0.363929
2086.19	0.0420723
2087.65	0.157042
2089.1	0.607611
2090.56	0.301641
2092.02	0.13022
2093.47	0.177025
2094.93	-0.128649
2096.38	0.068367
2097.84	0.331471
2099.29	0.426222
2100.75	-0.0480642
2102.2	0.263955
2103.66	0.125473
2105.11	-0.095048
2106.56	0.203118
2108.02	-0.031599
2109.47	0.234365
2110.92	0.0995922
2112.38	0.296904
2113.83	0.292511
2115.28	0.0536041
2116.73	0.36284
2118.18	0.339643
2119.63	0.533562
2121.09	0.0158072
2122.54	-0.0519123
2123.99	0.19683
2125.44	-0.101038
2126.89	0.181192
2128.34	0.197161
2129.79	0.311219
2131.23	0.109247
2132.68	0.0225964
2134.13	0.0683556
2135.58	-0.0670767
2137.03	0.311346
2138.48	-0.184531
2139.92	-0.01756
2141.37	0.217093
2142.82	0.337249
2144.27	0.375405
2145.71	-0.0662374
2147.16	0.584245
2148.6	0.207705
2150.05	0.393392
2151.49	0.0479965
2152.94	0.11586
2154.38	0.033844
2155.83	0.199914
2157.27	0.200368
2158.72	0.317435
2160.16	0.0381584
2161.6	0.240935
2163.05	0.0642605
2164.49	0.22059
2165.93	0.294905
2167.38	0.219715
2168.82	0.19332
2170.26	0.131997
2171.7	0.384775
2173.14	0.419501
2174.58	0.469546
2176.03	0.0533762
2177.47	0.285997
2178.91	0.253249
2180.35	0.520673
2181.79	0.772335
2183.23	0.159893
2184.67	-0.0034132
2186.1	0.498721
2187.54	0.26895
2188.98	0.521755
2190.42	0.10881
2191.86	0.211576
2193.3	0.28038
2194.73	-0.218124
2196.17	-0.00235271
2197.61	-0.171207
2199.05	0.0410061
2200.48	0.119047
2201.92	0.412652
2203.35	0.00965023
2204.79	-0.0602255
2206.22	-0.0959387
2207.66	0.0842228
2209.1	0.313744
2210.53	0.558859
2211.97	0.273404
2213.4	0.318196
2214.83	0.148067
2216.27	0.0777731
2217.7	0.22308
2219.13	-0.141792
2220.57	0.170296
2222	0.0208521
2223.43	0.167397
2224.86	0.197241
2226.29	0.143136
2227.72	-0.0439692
2229.16	0.474262
2230.59	0.350836
2232.02	-0.247751
2233.45	0.120991
2234.88	0.604103
2236.31	-0.235814
2237.74	0.0698156
2239.17	-0.32476
2240.6	0.408297
2242.03	0.0500641
2243.45	0.329133
2244.88	-0.0601835
2246.31	0.267558
2247.74	0.137081
2249.17	0.102434
2250.59	0.163448
2252.02	0.287784
2253.45	0.0207939
2254.87	0.404445
2256.3	0.415472
2257.73	0.396359
2259.15	-0.139082
2260.58	-0.103887
2262	0.0472202
2263.43	0.589775
2264.85	0.223218
2266.28	0.0184937
2267.7	0.186962
2269.13	0.305855
2270.55	0.310092
2271.97	-0.076951
2273.4	0.903708
2274.82	0.516525
2276.24	0.0967779
2277.67	0.100743
2279.09	-0.107163
2280.51	0.369646
2281.93	0.161517
2283.35	0.344753
2284.77	0.169108
2286.2	0.222101
2287.62	0.19384
2289.04	-0.0463562
2290.46	0.0241127
2291.88	0.438197
2293.3	0.558389
2294.72	-0.41757
2296.13	-0.445074
2297.55	0.149617
2298.97	-0.0578833
2300.39	0.0624046
2301.81	0.183074
2303.23	0.140078
2304.64	0.343409
2306.06	-0.0279379
2307.48	0.438006
2308.89	-0.279721
2310.31	0.0867519
2311.73	0.107657
2313.14	-0.233456
2314.56	0.265024
2315.98	0.369405
2317.39	0.128675
2318.81	-0.128367
2320.22	0.158375
2321.64	-0.430203
2323.05	0.00238514
2324.46	0.581357
2325.88	0.497905
2327.29	0.577719
2328.7	0.607221
2330.12	0.25804
2331.53	0.552159
2332.94	0.238226
2334.35	0.0898561
2335.77	0.106297
2337.18	0.303202
2338.59	-0.717546
2340	0.184108
2341.41	0.197053
2342.82	0.0946007
2344.23	0.336642
2345.64	-0.0605412
2347.05	0.673197
2348.46	0.39119
2349.87	0.0273628
2351.28	-0.124209
2352.69	0.164495
2354.1	0.0764675
2355.51	0.362834
2356.91	-0.0518713
2358.32	0.16859
2359.73	0.226219
2361.14	0.462354
2362.54	0.0818853
2363.95	0.13939
2365.36	-0.256277
2366.76	-0.182253
2368.17	-0.0109453
2369.58	0.0481091
2370.98	-0.262404
2372.39	0.153692
2373.79	0.312692
2375.2	0.021244
2376.6	0.0997381
2378	0.386136
2379.41	-0.0524464
2380.81	0.214434
2382.22	0.110557
2383.62	-0.170135
2385.02	0.0454998
2386.43	0.221042
2387.83	0.173643
2389.23	-0.0877304
2390.63	0.00303078
2392.03	-0.239535
2393.44	0.139683
2394.84	0.16944
2396.24	0.199862
2397.64	0.0719604
2399.04	0.10358
2400.44	0.0721235
2401.84	0.0409832
2403.24	0.00989342
2404.64	0.153116
2406.04	-0.101411
2407.44	0.389107
2408.84	0.355033
2410.23	0.352357
2411.63	0.207311
2413.03	-0.000146866
2414.43	-0.127082
2415.83	0.0798683
2417.22	0.335593
2418.62	0.275611
2420.02	0.263478
2421.41	-0.0497389
2422.81	0.0801945
2424.21	0.114824
2425.6	-0.135715
2427	0.501708
2428.39	0.125676
2429.79	0.622605
2431.18	0.0417051
2432.58	0.365279
2433.97	0.355103
2435.36	0.502663
2436.76	0.203903
2438.15	0.0624857
2439.54	0.33285
2440.94	0.31632
2442.33	0.188138
2443.72	-0.0354404
2445.12	-0.0686741
2446.51	-0.149594
2447.9	0.16561
2449.29	0.0528288
2450.68	0.162029
2452.07	-0.0132284
2453.46	-0.0293989
2454.85	0.192566
2456.24	0.272785
2457.64	-0.263582
2459.02	0.402038
2460.41	0.0864458
2461.8	-0.166571
2463.19	0.0381613
2464.58	0.0683851
2465.97	-0.122804
2467.36	-0.10871
2468.75	0.0315428
2470.13	0.34495
2471.52	-0.0832481
2472.91	0.0397367
2474.3	-0.294706
2475.68	-0.125906
2477.07	-0.0363169
2478.45	0.0216656
2479.84	0.111095
2481.23	0.0907907
2482.61	-0.148892
2484	-0.0285826
2485.38	-0.0188103
2486.77	-0.306984
2488.15	-0.111802
2489.54	-0.0892429
2490.92	-0.160272
2492.3	-0.15291
2493.69	0.429953
2495.07	-0.0729017
2496.45	-0.155166
2497.84	-0.174538
2499.22	0.0230684
2500.6	-0.553286
2501.98	-0.124907
2503.36	-0.0224466
2504.75	0.0635195
2506.13	0.148695
2507.51	-0.24367
2508.89	0.34886
2510.27	-0.0269718
2511.65	0.242953
2513.03	0.0532875
2514.41	0.00262642
2515.79	0.0294113
2517.17	0.0416183
2518.55	0.176652
2519.93	-0.253677
2521.3	0.202016
2522.68	0.259686
2524.06	0.331699
2525.44	0.174276
2526.82	0.0625267
2528.19	0.194806
2529.57	0.145499
2530.95	0.0522051
2532.32	0.00620174
2533.7	0.113467
2535.08	0.0695
2536.45	0.0103035
2537.83	0.193526
2539.2	0.0112514
2540.58	0.162292
2541.95	0.297693
2543.33	0.129827
2544.7	-0.143298
2546.08	-0.0208101
2547.45	0.148365
2548.82	0.0605021
2550.2	-0.194232
2551.57	-0.0245609
2552.94	0.417431
2554.32	0.554843
2555.69	-0.00660801
2557.06	-0.158802
2558.43	0.265162
2559.8	0.173747
2561.18	0.310245
2562.55	-0.0830717
2563.92	0.206164
2565.29	0.0563526
2566.66	-0.0174503
2568.03	-0.0305471
2569.4	0.00183296
2570.77	-0.177977
2572.14	0.218222
2573.51	-0.0978985
2574.88	0.283371
2576.25	0.0583029
2577.61	0.212176
2578.98	-0.149688
2580.35	0.352393
2581.72	0.247549
2583.09	-0.069911
2584.45	0.234012
2585.82	0.234655
2587.19	-0.219282
2588.55	-0.263762
2589.92	0.0404243
2591.29	0.223228
2592.65	0.43584
2594.02	0.238558
2595.38	-0.0353432
2596.75	0.340842
2598.11	0.0502176
2599.48	0.00146389
2600.84	0.315507
2602.21	0.0256233
2603.57	0.0536747
2604.93	0.202966
2606.3	0.367434
2607.66	-0.0867643
2609.02	0.543765
2610.39	-0.348901
2611.75	0.0979261
2613.11	-0.118735
2614.47	0.054821
2615.83	0.137736
2617.19	0.100791
2618.56	0.334083
2619.92	0.22357
2621.28	0.0392132
2622.64	0.333783
2624	0.210092
2625.36	0.101435
2626.72	0.171618
2628.08	-0.146048
2629.44	0.310736
2630.8	-0.08144
2632.15	0.403996
2633.51	0.205321
2634.87	0.244405
2636.23	0.268571
2637.59	-0.0481262
2638.94	0.0799208
2640.3	0.133947
2641.66	0.306415
2643.02	-0.0676861
2644.37	0.311803
2645.73	-0.0469322
2647.09	-0.243382
2648.44	0.0753584
2649.8	0.304454
2651.15	-0.36434
2652.51	-0.0481167
2653.86	0.22366
2655.22	-0.075983
2656.57	-0.286191
2657.93	0.105083
2659.28	0.569919
2660.63	-0.047287
2661.99	0.139765
2663.34	-0.199777
2664.69	0.0733747
2666.05	-0.310929
2667.4	-0.112138
2668.75	0.144479
2670.1	0.299104
2671.45	-0.345642
2672.81	0.202549
2674.16	0.184345
2675.51	-0.196132
2676.86	0.236755
2678.21	0.0898323
2679.56	0.233809
2680.91	-0.128658
2682.26	0.321959
2683.61	0.208328
2684.96	0.0956039
2686.31	0.418566
2687.66	0.190027
2689	0.250565
2690.35	0.236862
2691.7	0.0617027
2693.05	0.20435
2694.4	0.0123959
2695.74	0.0233669
2697.09	0.22323
2698.44	-0.212953
2699.79	0.337234
2701.13	0.179599
2702.48	-0.106976
2703.83	0.259341
2705.17	0.0320969
2706.52	0.0367718
2707.86	-0.0893993
2709.21	0.0597563
2710.55	0.266749
2711.9	0.0814009
2713.24	0.113761
2714.58	0.320514
2715.93	0.51279
2717.27	0.152356
2718.62	0.57707
2719.96	0.405016
2721.3	0.086915
2722.65	0.00113678
2723.99	0.526226
2725.33	0.410455
2726.67	0.498077
2728.01	0.119645
2729.35	0.454111
2730.7	0.293641
2732.04	-0.0704985
2733.38	-0.259905
2734.72	0.496357
2736.06	0.234584
2737.4	0.278399
2738.74	0.496711
2740.08	0.147609
2741.42	0.147082
2742.76	0.204077
2744.1	0.0132961
2745.43	0.577477
2746.77	0.400178
2748.11	0.0486612
2749.45	-0.0268402
2750.79	0.0864553
2752.12	0.243407
2753.46	-0.0777836
2754.8	0.209909
2756.14	0.048563
2757.47	0.206024
2758.81	0.146518
2760.14	-0.0717831
2761.48	-0.0290632
2762.81	0.0864553
2764.15	-0.0726414
2765.49	0.260195
2766.82	0.361063
2768.16	-0.160974
2769.49	0.111302
2770.82	0.280762
2772.16	0.116507
2773.49	-0.10624
2774.82	0.0024538
2776.16	0.0677052
2777.49	0.262721
2778.82	0.0121746
2780.16	-0.0937853
2781.49	0.188447
2782.82	0.0685654
2784.15	0.4364
2785.48	0.15878
2786.82	-0.218547
2788.15	-0.0796185
2789.48	0.131453
2790.81	0.0571861
2792.14	0.198205
2793.47	0.0680065
2794.8	0.15229
2796.13	-0.0924206
2797.46	-0.066123
2798.79	0.188068
2800.12	-0.0436153
2801.44	-0.0898991
2802.77	0.0205135
2804.1	0.244566
2805.43	-0.258425
2806.76	-0.135108
2808.08	-0.154794
2809.41	0.00990391
2810.74	0.0181627
2812.07	-0.143295
2813.39	0.263851
2814.72	-0.00846195
2816.05	0.160201
2817.37	0.0606251
2818.7	0.0325003
2820.02	0.103606
2821.35	-0.0241432
2822.67	0.385985
2824	-0.0263996
2825.32	0.0426626
2826.65	0.366632
2827.97	0.237913
2829.3	0.407083
2830.62	0.15202
2831.94	0.435097
2833.26	0.194368
2834.59	0.109053
2835.91	0.546908
2837.23	0.403969
2838.56	0.303101
2839.88	0.583913
2841.2	0.497091
2842.52	1.24469
2843.84	1.00339
2845.16	0.833529
2846.48	1.22959
2847.8	1.27273
2849.12	0.920135
2850.45	1.11847
2851.77	1.34459
2853.08	1.20272
2854.4	1.44203
2855.72	1.35613
2857.04	1.22786
2858.36	1.55167
2859.68	1.55054
2861	1.39394
2862.32	1.71706
2863.63	1.22107
2864.95	1.55758
2866.27	1.9221
2867.59	2.04693
2868.9	2.28496
2870.22	2.29776
2871.54	2.16976
2872.85	2.61936
2874.17	2.13808
2875.48	2.72652
2876.8	2.31377
2878.11	2.61825
2879.43	2.90806
2880.74	3.01514
2882.06	2.71553
2883.37	2.86666
2884.69	3.00465
2886	3.05897
2887.31	3.22563
2888.63	3.09709
2889.94	2.98183
2891.25	2.85177
2892.57	2.94545
2893.88	3.02485
2895.19	2.85252
2896.5	2.97507
2897.82	3.46245
2899.13	3.3211
2900.44	3.01273
2901.75	3.51622
2903.06	3.27853
2904.37	3.71238
2905.68	3.23733
2906.99	3.76995
2908.3	3.68795
2909.61	3.74671
2910.92	3.94602
2912.23	3.72547
2913.54	4.16208
2914.85	4.23331
2916.16	3.43485
2917.46	4.24463
2918.77	4.17151
2920.08	4.44792
2921.39	3.94186
2922.7	4.05233
2924	4.48563
2925.31	4.58459
2926.62	4.4046
2927.92	4.50423
2929.23	4.49165
2930.54	4.95384
2931.84	4.52084
2933.15	4.33924
2934.45	4.78661
2935.76	4.42343
2937.06	4.64741
2938.37	4.18681
2939.67	4.06189
2940.98	3.61608
2942.28	3.64616
2943.58	4.1945
2944.89	3.84968
2946.19	3.88337
2947.49	3.44198
2948.8	3.58788
2950.1	3.29877
2951.4	3.07788
2952.7	3.45732
2954.01	3.14932
2955.31	3.28899
2956.61	3.6394
2957.91	3.20795
2959.21	3.04497
2960.51	3.06659
2961.81	3.27245
2963.11	3.0164
2964.41	2.60501
2965.71	2.88011
2967.01	3.16797
2968.31	2.73774
2969.61	2.68621
2970.91	2.40948
2972.21	2.49869
2973.51	2.50383
2974.81	2.19928
2976.1	2.48533
2977.4	2.37597
2978.7	2.23678
2980	1.96926
2981.29	1.93986
2982.59	1.69896
2983.89	1.78192
2985.18	1.76747
2986.48	1.88094
2987.78	1.68667
2989.07	1.28258
2990.37	1.46894
2991.66	1.66892
2992.96	1.20734
2994.25	1.34885
2995.55	0.857114
2996.84	1.09512
2998.14	0.855575
2999.43	1.09338
3000.73	0.854764
3002.02	0.743024
3003.31	0.813912
3004.61	0.534647
3005.9	0.423344
3007.19	0.423532
3008.48	0.394938
3009.77	-0.0119886
3011.07	0.39133
3012.36	0.416668
3013.65	0.609356
3014.94	0.370007
3016.23	0.103797
3017.52	0.353742
3018.81	0.325607
3020.1	0.339289
3021.4	0.394213
3022.68	0.128788
3023.97	-0.0400329
3025.26	0.178915
3026.55	-0.0182948
3027.84	0.158909
3029.13	-0.202337
3030.42	-0.368247
3031.71	0.0750089
3033	-0.102333
3034.28	0.0657654
3035.57	-0.180627
3036.86	0.178643
3038.15	0.0397425
3039.43	-0.0319076
3040.72	0.348661
3042.01	-0.151116
3043.29	-0.252095
3044.58	-0.174079
3045.87	0.192395
3047.15	0.00017643
3048.44	0.0835323
3049.72	0.196157
3051.01	0.28298
3052.29	0.261441
3053.58	0.362715
3054.86	0.28597
3056.15	0.34461
3057.43	0.41574
3058.71	0.458739
3060	0.188242
3061.28	0.476329
3062.56	0.112211
3063.84	-0.100728
3065.13	0.190896
3066.41	0.347888
3067.69	0.00280333
3068.97	0.351556
3070.26	0.305725
3071.54	0.313431
3072.82	0.483103
3074.1	-0.150622
3075.38	0.112048
3076.66	0.197582
3077.94	-0.00162172
3079.22	0.112433
3080.5	-0.233345
3081.78	0.358386
3083.06	-0.161025
3084.34	0.0256524
3085.62	-0.0725441
3086.9	0.100276
3088.18	-0.0126281
3089.45	-0.0719094
3090.73	0.261894
3092.01	0.107017
3093.29	-0.278235
3094.56	-0.201981
3095.84	0.0100884
3097.12	-0.0218439
3098.4	0.244339
3099.67	0.252809
3100.95	-0.429675
3102.22	-0.190847
3103.5	0.115797
3104.78	0.0979323
3106.05	0.297319
3107.33	-0.0166645
3108.6	-0.045455
3109.88	-0.208595
3111.15	-0.0323896
3112.43	0.0227461
3113.7	0.268061
3114.97	0.25599
3116.25	0.40616
3117.52	0.501278
3118.79	0.256206
3120.07	0.17279
3121.34	0.291852
3122.61	-0.29448
3123.88	0.0406322
3125.16	0.280829
3126.43	0.345312
3127.7	0.396768
3128.97	0.354019
3130.24	0.135882
3131.51	-0.0685015
3132.79	0.227061
3134.06	0.386962
3135.33	0.478676
3136.6	0.47527
3137.87	-0.189253
3139.14	0.0763493
3140.41	0.556706
3141.67	0.48494
3142.94	0.306072
3144.21	0.141405
3145.48	0.0714879
3146.75	0.310629
3148.02	0.550104
3149.29	0.763093
