200.407	0.755803
202.221	0.772302
204.035	0.790123
205.849	1.31985
207.665	0.755576
209.478	0.823165
211.291	1.4968
213.104	1.7799
214.916	1.28525
216.73	1.03312
218.541	0.854129
220.352	0.143665
222.163	1.24931
223.973	1.12185
225.785	0.705273
227.595	0.50662
229.404	0.863194
231.213	-0.180926
233.022	0.488466
234.83	0.14491
236.638	0.743066
238.448	1.48791
240.255	1.19918
242.062	0.358392
243.868	-0.0231667
245.675	0.487963
247.48	0.0322475
249.286	0.587808
251.091	1.38152
252.896	0.240932
254.702	0.209169
256.506	0.128764
258.31	-0.191696
260.113	0.766659
261.916	0.160975
263.719	-0.274242
265.521	0.496338
267.323	0.42416
269.125	0.88201
270.926	-0.107353
272.727	0.830811
274.527	0.296812
276.328	0.243377
278.127	0.163991
279.927	0.0344543
281.726	0.215898
283.525	0.106551
285.323	0.740736
287.121	0.196757
288.919	-0.274188
290.716	-0.408102
292.513	-0.301121
294.31	0.0464954
296.104	0.0366373
297.9	-0.0676289
299.696	0.497736
301.491	0.584916
303.286	0.480188
305.081	0.51746
306.875	0.172085
308.669	0.613496
310.463	0.221131
312.256	-0.0505533
314.047	0.584454
315.839	0.245083
317.631	0.33626
319.423	0.881787
321.215	0.690228
323.006	0.0224371
324.794	1.38256
326.585	0.285286
328.375	1.38445
330.165	0.547878
331.954	-0.338657
333.741	0.901782
335.53	1.30302
337.318	0.457431
339.106	0.590698
340.894	0.267824
342.679	-0.366431
344.466	-0.14002
346.253	0.18224
348.039	0.409509
349.823	0.255247
351.608	-0.0182056
353.393	-0.0295868
355.176	0.0772524
356.961	-0.103436
358.745	0.286638
360.529	0.0558529
362.31	-0.0803862
364.093	-0.0982876
365.876	0.0969296
367.657	0.385938
369.439	-0.251274
371.221	-0.011632
373	0.27408
374.781	0.062459
376.56	-0.337479
378.34	0.0421286
380.12	0.162748
381.898	-0.257024
383.677	0.171906
385.456	0.154985
387.233	0.139344
389.011	0.124889
390.787	0.393292
392.565	-0.0420256
394.34	0.251329
396.117	0.521621
397.894	0.157938
399.668	0.310752
401.444	-0.264979
403.217	0.145134
404.993	0.24914
406.766	0.422785
408.54	-0.132078
410.312	-0.147193
412.086	0.612177
413.858	0.456586
415.631	0.0202141
417.402	0.335513
419.174	0.51075
420.944	0.0291281
422.716	0.251364
424.486	0.144269
426.257	0.247529
428.025	0.490754
429.794	0.00576305
431.564	0.201466
433.332	0.350499
435.101	0.124383
436.868	0.0155859
438.637	-0.164282
440.403	-0.0874214
442.169	-0.129873
443.937	0.411637
445.703	0.107148
447.468	0.340202
449.234	0.244942
450.999	0.0564709
452.765	-0.154703
454.528	-0.155377
456.292	-0.0162258
458.057	-0.1802
459.819	0.377515
461.582	-0.204386
463.344	0.30829
465.107	0.381525
466.868	0.411237
468.629	0.769206
470.392	-0.00993824
472.152	-0.0679522
473.912	-0.0801783
475.672	-0.164029
477.433	-0.110309
479.192	-0.477769
480.951	0.108786
482.709	0.0664911
484.469	0.561031
486.226	0.265638
487.984	0.857927
489.74	0.123687
491.499	0.183079
493.255	-0.0137672
495.011	-0.117225
496.767	0.130153
498.522	0.0965328
500.277	0.437596
502.033	-0.136755
503.788	0.297067
505.541	0.636311
507.295	0.433639
509.048	-0.123679
510.801	0.140617
512.553	0.544567
514.308	0.382226
516.06	0.453747
517.811	0.688581
519.562	0.710593
521.313	0.825747
523.063	0.987218
524.814	0.86661
526.563	0.488048
528.313	0.297472
530.062	1.09124
531.811	0.478414
533.559	0.544291
535.308	0.281393
537.055	0.134335
538.803	0.219592
540.55	-0.04636
542.297	-0.0330095
544.043	-0.182955
545.789	0.596873
547.535	0.632317
549.281	-0.0275402
551.026	0.796322
552.771	0.994019
554.515	0.151688
556.259	0.53478
558.003	0.340984
559.747	0.493648
561.49	0.23226
563.233	0.0868921
564.975	0.14919
566.717	0.510662
568.459	0.459283
570.2	-0.118769
571.942	0.0390549
573.68	-0.0309515
575.421	0.267841
577.161	0.637283
578.901	-0.323067
580.64	-0.112197
582.379	-0.544408
584.118	0.286894
585.855	0.818878
587.593	0.406682
589.331	0.476208
591.068	0.360688
592.805	0.129555
594.54	0.0362902
596.277	-0.0799561
598.013	0.0798426
599.749	-0.335867
601.484	0.259843
603.217	0.0951376
604.952	0.227924
606.687	-0.261151
608.421	0.19102
610.153	-0.711601
611.886	0.0387459
613.619	0.101277
615.35	0.508226
617.083	-0.0700979
618.815	0.198894
620.547	0.00875664
622.276	-0.113766
624.008	-0.0769949
625.738	-0.177391
627.467	-0.0712042
629.197	0.287786
630.927	-0.0355787
632.655	0.167953
634.384	0.167226
636.113	0.599942
637.839	0.095068
639.568	0.0669165
641.293	0.469207
643.021	0.344214
644.748	0.218095
646.473	0.274435
648.2	0.468887
649.924	0.0300732
651.65	0.0723419
653.376	0.345785
655.099	0.21348
656.824	0.789131
658.546	0.478052
660.271	0.416931
661.993	0.947886
663.716	0.0146618
665.438	-0.258961
667.161	0.197143
668.881	0.652608
670.604	0.216695
672.324	0.125694
674.045	0.265991
675.765	-0.0955963
677.486	-0.0206928
679.204	0.123437
680.925	0.634736
682.643	0.362849
684.361	1.23941
686.08	0.180262
687.797	0.685108
689.516	0.382743
691.232	0.0335178
692.95	0.420772
694.666	0.231414
696.382	0.202328
698.099	0.724555
699.813	0.439725
701.528	0.70594
703.244	0.649057
704.958	0.958991
706.673	0.83184
708.387	0.612715
710.099	0.805975
711.814	1.63953
713.526	0.000953674
715.238	0.467546
716.949	0.499419
718.663	0.736597
720.374	0.107451
722.084	0.0716162
723.796	1.08251
725.506	0.45475
727.216	0.736327
728.925	0.744651
730.636	1.13788
732.345	1.16756
734.053	0.201431
735.761	0.751659
737.471	1.34629
739.178	1.53444
740.885	1.40771
742.592	1.12477
744.298	0.82107
746.006	1.1942
747.712	0.893617
749.417	0.662013
751.122	1.71377
752.827	1.41735
754.532	1.2798
756.236	0.648601
757.942	1.32433
759.645	1.32643
761.348	1.41991
763.051	1.73974
764.753	1.29208
766.456	1.63346
768.158	1.74724
769.859	1.5422
771.56	1.26707
773.261	1.21654
774.964	2.09254
776.664	1.81586
778.364	2.26411
780.064	1.58334
781.763	1.65
783.462	2.3053
785.16	2.14488
786.859	1.82342
788.557	1.79291
790.255	1.23868
791.952	1.36043
793.649	1.86411
795.346	1.55437
797.042	1.11087
798.738	1.05258
800.434	1.0862
802.127	1.14373
803.823	1.26937
805.517	1.21495
807.212	1.2047
808.906	0.923795
810.6	1.24799
812.293	1.75015
813.987	1.91479
815.68	1.16101
817.372	2.35445
819.064	2.27204
820.754	1.94432
822.446	2.44308
824.137	2.42911
825.828	1.65906
827.519	2.31752
829.209	1.4865
830.897	2.10633
832.587	1.3482
834.276	2.12966
835.966	2.22172
837.654	1.88968
839.341	1.28813
841.029	1.73429
842.717	1.48668
844.404	1.14902
846.091	1.21417
847.776	1.41526
849.463	1.23868
851.149	1.98243
852.833	1.16066
854.519	1.12351
856.204	1.69262
857.889	0.845286
859.572	1.88495
861.256	1.19043
862.94	1.4396
864.622	1.28198
866.305	1.37125
867.988	1.25695
869.669	1.16467
871.351	1.36526
873.033	0.866318
874.713	1.29226
876.395	1.44751
878.074	1.30942
879.755	0.968022
881.435	0.468164
883.114	0.599682
884.794	0.888149
886.471	0.92689
888.15	0.648161
889.829	0.751455
891.506	0.853163
893.184	0.77321
894.861	0.602206
896.538	1.23972
898.214	1.26859
899.891	0.690735
901.566	0.852789
903.242	0.924337
904.916	1.0849
906.592	1.2899
908.266	1.04917
909.941	1.07709
911.614	1.12814
913.288	1.15756
914.961	1.1207
916.635	0.950864
918.306	0.936422
919.979	0.634249
921.651	0.908347
923.321	1.66941
924.994	0.509233
926.664	1.05231
928.336	1.17731
930.005	1.12702
931.674	1.16573
933.345	0.87381
935.014	1.31005
936.682	0.665914
938.352	0.684334
940.019	1.21125
941.687	1.09983
943.356	0.724352
945.022	0.767928
946.689	1.22983
948.357	0.564119
950.022	1.11047
951.688	0.772752
953.355	1.05278
955.02	1.11371
956.684	0.67026
958.348	0.759293
960.014	1.31478
961.678	1.03334
963.341	0.574601
965.004	1.30795
966.669	0.888709
968.331	1.35144
969.993	0.772075
971.655	0.656448
973.316	0.917222
974.979	1.17939
976.64	0.979044
978.3	0.514741
979.961	0.703672
981.62	0.892356
983.28	0.581667
984.941	0.446099
986.6	0.994609
988.259	0.810808
989.917	0.891212
991.575	0.948727
993.233	0.873455
994.89	1.23984
996.547	1.16469
998.204	1.02346
999.86	1.93988
1001.52	2.50236
1003.17	2.62346
1004.83	1.9523
1006.49	1.47972
1008.14	0.985988
1009.79	0.624945
1011.45	1.22975
1013.1	0.694615
1014.76	0.730026
1016.41	0.984724
1018.06	-0.00750732
1019.72	0.532938
1021.37	0.702328
1023.02	0.588603
1024.67	0.93486
1026.32	1.04128
1027.97	0.994781
1029.62	1.2535
1031.27	1.68553
1032.92	1.26408
1034.57	0.775806
1036.22	0.853577
1037.87	1.1482
1039.52	1.57282
1041.17	1.30145
1042.82	1.27096
1044.47	0.699203
1046.11	0.412269
1047.76	0.214235
1049.41	0.864858
1051.06	0.930455
1052.7	0.779704
1054.35	0.759672
1055.99	0.783112
1057.64	0.936713
1059.28	0.481075
1060.93	1.04666
1062.57	0.415531
1064.22	1.06635
1065.86	0.628933
1067.5	0.0819159
1069.15	0.272953
1070.79	0.31117
1072.43	0.522843
1074.08	0.214059
1075.72	0.492165
1077.36	0.142562
1079	0.0545187
1080.64	0.769586
1082.28	1.2895
1083.92	0.984507
1085.56	0.526194
1087.2	0.73781
1088.84	0.492304
1090.48	0.634794
1092.12	0.343462
1093.76	1.00235
1095.39	0.451909
1097.03	-0.290705
1098.67	0.886259
1100.31	0.341276
1101.94	0.616485
1103.58	-0.182281
1105.22	0.117561
1106.85	-0.184278
1108.49	0.459916
1110.12	0.242798
1111.76	-0.25516
1113.39	0.0835505
1115.03	0.205933
1116.66	-0.0157099
1118.29	0.148914
1119.93	0.849598
1121.56	0.0730314
1123.19	0.197226
1124.82	0.793006
1126.46	0.875994
1128.09	0.745927
1129.72	0.253182
1131.35	-0.302987
1132.98	0.0390987
1134.61	-0.303
1136.24	0.401649
1137.87	-0.0702295
1139.5	0.225948
1141.13	0.435463
1142.76	-0.380041
1144.39	0.234378
1146.01	-0.302317
1147.64	0.100024
1149.27	0.204718
1150.9	0.352471
1152.53	0.15946
1154.15	0.668761
1155.78	0.368599
1157.4	0.323795
1159.03	0.0028677
1160.65	-0.402122
1162.28	-0.338141
1163.9	-0.400763
1165.53	0.621488
1167.15	0.686735
1168.78	0.176876
1170.4	0.154374
1172.02	0.618564
1173.65	-0.427041
1175.27	0.373343
1176.89	-0.396786
1178.51	-0.169958
1180.14	0.205362
1181.76	-0.518918
1183.38	-0.0788746
1185	-0.125245
1186.62	0.418796
1188.24	0.327428
1189.86	0.213137
1191.48	0.623481
1193.1	0.29531
1194.71	0.639028
1196.33	0.730165
1197.95	0.214804
1199.57	0.14166
1201.19	0.656058
1202.8	0.608661
1204.42	1.25276
1206.04	1.29372
1207.65	0.710317
1209.27	0.732322
1210.88	0.753513
1212.5	0.772931
1214.12	0.852516
1215.73	0.908781
1217.35	0.734172
1218.96	0.704266
1220.57	0.798812
1222.19	0.603525
1223.8	1.0315
1225.41	1.21195
1227.03	1.10412
1228.64	0.191283
1230.25	1.34806
1231.86	1.01716
1233.47	1.51441
1235.08	1.4756
1236.69	1.27278
1238.31	1.0917
1239.92	1.71774
1241.52	1.66176
1243.13	1.39852
1244.74	1.92064
1246.35	1.3657
1247.96	1.34763
1249.57	1.26666
1251.18	1.55773
1252.78	1.12498
1254.39	1.06536
1256	1.56535
1257.6	1.38412
1259.21	1.36962
1260.82	1.72869
1262.42	1.81937
1264.03	1.84803
1265.63	1.13025
1267.24	1.01239
1268.84	1.24594
1270.45	0.628361
1272.05	1.35737
1273.65	1.02786
1275.26	1.42289
1276.86	1.02928
1278.46	1.44293
1280.06	1.33793
1281.67	0.901529
1283.27	0.92075
1284.87	1.56089
1286.47	1.87077
1288.07	0.672859
1289.67	1.27422
1291.27	0.946148
1292.87	1.5685
1294.47	1.48754
1296.07	2.10742
1297.67	1.63095
1299.27	1.33883
1300.87	1.93196
1302.47	1.82239
1304.06	1.25919
1305.66	1.37475
1307.26	1.71545
1308.85	1.54218
1310.45	1.67669
1312.05	1.6066
1313.64	2.19192
1315.24	2.77728
1316.83	1.66813
1318.43	2.15273
1320.02	2.39185
1321.62	1.77405
1323.21	1.80689
1324.8	2.04101
1326.4	2.29325
1327.99	2.5239
1329.59	2.51155
1331.18	1.83364
1332.77	1.52329
1334.36	2.08411
1335.95	1.55639
1337.54	1.65513
1339.14	1.89419
1340.73	2.01027
1342.32	1.82193
1343.91	1.55137
1345.5	1.66165
1347.09	0.909472
1348.67	1.42265
1350.26	1.21698
1351.85	1.21434
1353.44	1.49382
1355.03	1.29486
1356.62	1.17637
1358.2	1.29724
1359.79	1.33716
1361.38	1.67527
1362.96	1.81261
1364.55	1.37123
1366.14	1.68775
1367.72	1.1883
1369.31	1.56646
1370.89	0.791659
1372.48	1.19259
1374.06	0.977846
1375.64	1.18168
1377.23	0.450415
1378.81	0.713587
1380.39	1.33386
1381.98	1.07728
1383.56	1.3166
1385.14	0.660184
1386.72	1.21579
1388.3	0.778122
1389.89	0.67895
1391.47	0.620456
1393.05	0.761192
1394.63	0.882441
1396.21	0.646548
1397.79	1.16335
1399.37	1.44096
1400.95	1.1033
1402.52	1.29981
1404.1	0.981671
1405.68	1.07964
1407.26	1.0796
1408.84	0.863127
1410.42	1.43744
1411.99	1.95216
1413.57	0.866975
1415.15	0.98531
1416.72	0.767382
1418.3	1.29823
1419.87	1.84853
1421.45	1.51339
1423.02	1.23925
1424.6	0.966987
1426.17	1.08974
1427.75	1.66579
1429.32	1.31651
1430.89	1.79293
1432.47	2.22861
1434.04	1.79735
1435.61	2.34917
1437.18	2.50764
1438.76	2.52928
1440.33	2.7093
1441.9	2.47772
1443.47	2.58109
1445.04	2.07564
1446.61	3.30004
1448.18	2.79497
1449.75	3.39106
1451.32	3.04407
1452.89	2.54027
1454.46	3.03994
1456.03	2.4183
1457.6	2.1696
1459.16	2.80508
1460.73	2.92687
1462.3	2.16106
1463.87	2.27886
1465.43	1.76632
1467	2.68791
1468.56	2.13639
1470.13	2.27325
1471.7	1.84239
1473.26	1.92289
1474.83	1.02378
1476.39	1.34102
1477.96	1.59949
1479.52	1.21096
1481.08	0.214834
1482.65	0.904229
1484.21	0.594005
1485.77	0.49903
1487.34	0.0899982
1488.9	0.619707
1490.46	0.48181
1492.02	0.126858
1493.58	0.590776
1495.15	0.544612
1496.71	0.711764
1498.27	0.313899
1499.83	-0.121319
1501.39	0.474414
1502.95	0.430064
1504.51	0.154206
1506.07	0.13079
1507.63	0.358246
1509.18	0.139905
1510.74	0.152472
1512.3	0.626673
1513.86	0.194646
1515.41	0.532771
1516.97	0.256292
1518.53	0.230525
1520.08	-0.139372
1521.64	0.0657969
1523.2	0.442245
1524.75	0.225231
1526.31	0.198424
1527.86	0.265993
1529.42	0.370839
1530.97	0.532296
1532.52	0.371463
1534.08	-0.166822
1535.63	0.318608
1537.19	0.520464
1538.74	0.665988
1540.29	0.396776
1541.84	0.749864
1543.4	0.70695
1544.95	0.569911
1546.5	0.677094
1548.05	0.821421
1549.6	0.0656996
1551.15	0.865851
1552.7	0.841844
1554.25	1.41693
1555.8	0.984022
1557.35	0.926828
1558.9	0.90902
1560.45	0.687973
1562	0.916323
1563.54	1.18316
1565.09	0.443095
1566.64	0.673335
1568.19	0.810102
1569.73	0.722519
1571.28	1.1012
1572.83	1.01293
1574.37	1.01784
1575.92	1.09744
1577.47	1.56929
1579.01	1.16414
1580.56	1.39439
1582.1	0.897175
1583.64	0.923633
1585.19	1.66102
1586.73	1.38993
1588.28	1.2123
1589.82	1.14658
1591.36	1.90398
1592.9	0.994877
1594.45	1.02142
1595.99	1.5164
1597.53	1.35614
1599.07	1.44018
1600.61	1.5438
1602.15	1.42279
1603.69	1.82745
1605.23	1.6494
1606.77	2.16512
1608.31	2.19024
1609.85	1.85572
1611.39	1.55637
1612.93	1.70586
1614.47	1.25318
1616.01	1.47581
1617.55	2.09223
1619.08	1.5102
1620.62	1.39844
1622.16	1.30692
1623.7	1.68433
1625.23	1.14449
1626.77	1.67082
1628.3	1.14782
1629.84	1.70842
1631.37	1.53841
1632.91	1.40549
1634.44	1.38502
1635.98	1.58929
1637.51	1.83164
1639.05	1.73892
1640.58	1.77678
1642.11	1.27372
1643.65	1.40309
1645.18	1.97767
1646.71	1.88104
1648.24	1.30106
1649.78	2.39344
1651.31	2.16791
1652.84	1.8698
1654.37	2.48166
1655.9	2.27831
1657.43	2.39002
1658.96	2.07483
1660.49	2.46196
1662.02	2.44001
1663.55	2.2689
1665.08	1.96809
1666.61	2.83083
1668.14	2.47629
1669.66	2.23446
1671.19	2.82365
1672.72	2.58484
1674.25	1.90475
1675.77	1.9428
1677.3	2.05359
1678.83	1.53764
1680.35	1.40719
1681.88	1.5517
1683.4	1.36512
1684.93	1.65596
1686.45	1.43329
1687.98	1.00974
1689.5	1.24653
1691.03	0.915741
1692.55	1.06118
1694.07	1.38932
1695.6	0.784564
1697.12	0.490818
1698.64	0.90926
1700.17	0.432504
1701.69	0.375319
1703.21	0.736826
1704.73	0.350591
1706.25	0.346627
1707.77	0.287838
1709.29	0.592335
1710.81	0.315639
1712.33	0.438495
1713.85	0.380127
1715.37	0.539151
1716.89	-0.170378
1718.41	0.54891
1719.93	0.707115
1721.45	0.648708
1722.97	0.410649
1724.49	0.0297661
1726	0.406876
1727.52	0.280932
1729.04	-0.0778952
1730.55	0.123248
1732.07	0.021347
1733.59	0.376948
1735.1	0.554633
1736.62	0.485463
1738.13	0.691679
1739.65	0.317859
1741.16	0.5576
1742.68	-0.0774879
1744.19	0.136945
1745.7	0.223238
1747.22	0.225207
1748.73	0.145172
1750.24	0.565021
1751.76	0.347076
1753.27	0.596846
1754.78	0.379808
1756.29	-0.0153389
1757.8	0.186698
1759.31	0.0430851
1760.83	0.125246
1762.34	-0.171102
1763.85	0.321982
1765.36	0.388408
1766.87	0.185327
1768.38	0.249801
1769.89	-0.0960836
1771.39	-0.155824
1772.9	0.162775
1774.41	0.158195
1775.92	0.574471
1777.43	0.375546
1778.94	0.0288219
1780.44	0.295243
1781.95	-0.263271
1783.46	-0.224081
1784.96	0.00965309
1786.47	0.0341883
1787.97	-0.0362225
1789.48	-0.252671
1790.99	-0.181868
1792.49	-0.13072
1794	-0.0208302
1795.5	0.174919
1797	0.238548
1798.51	0.208828
1800.01	-0.184827
1801.51	0.164791
1803.02	0.272121
1804.52	0.0795193
1806.02	0.158862
1807.53	-0.220366
1809.03	0.0982771
1810.53	0.178535
1812.03	0.451079
1813.53	-0.196827
1815.03	0.149971
1816.53	0.0706158
1818.03	-0.0255804
1819.53	0.12473
1821.03	-0.0189486
1822.53	-0.126638
1824.03	-0.0808287
1825.53	0.0670261
1827.03	0.146215
1828.53	0.185374
1830.02	0.120279
1831.52	-0.0225735
1833.02	-0.304984
1834.52	-0.00745869
1836.01	0.195824
1837.51	-0.010088
1839.01	0.222483
1840.5	0.0566931
1842	0.556891
1843.49	0.127174
1844.99	0.188882
1846.48	0.0491667
1847.98	0.0218878
1849.47	-0.118088
1850.97	0.109842
1852.46	-0.102077
1853.95	0.26685
1855.45	0.242483
1856.94	0.104837
1858.43	0.0294247
1859.93	0.0220337
1861.42	0.315035
1862.91	-0.0171518
1864.4	0.352108
1865.89	0.133263
1867.38	0.401507
1868.87	-0.018815
1870.36	0.341743
1871.85	0.224589
1873.34	0.106517
1874.83	-0.158161
1876.32	0.16116
1877.81	-0.0742645
1879.3	-0.0422974
1880.79	0.336984
1882.28	0.177473
1882.52	0.13211
1884.02	-0.251562
1885.51	-0.0954847
1887.01	0.390562
1888.5	-0.46478
1889.99	-0.344729
1891.49	0.193478
1892.98	-0.01476
1894.47	0.143875
1895.97	-0.0785332
1897.46	0.291079
1898.95	0.39981
1900.44	-0.0317326
1901.93	0.352788
1903.42	0.248495
1904.91	0.195022
1906.4	0.192957
1907.89	-0.0522518
1909.38	-0.192513
1910.87	0.171379
1912.36	0.032855
1913.85	-0.0183592
1915.34	0.121276
1916.83	0.121843
1918.32	0.0352345
1919.8	0.658636
1921.29	-0.0521641
1922.78	-0.0175686
1924.27	0.381392
1925.75	0.210085
1927.24	0.247551
1928.73	0.302959
1930.21	-0.00530148
1931.7	-0.193145
1933.18	0.604659
1934.67	-0.0363579
1936.15	0.238529
1937.64	0.339054
1939.12	0.300765
1940.61	-0.376077
1942.09	-0.015893
1943.57	0.103415
1945.06	0.240692
1946.54	-0.225121
1948.02	0.101877
1949.51	-0.0888586
1950.99	-0.142606
1952.47	0.284648
1953.95	0.143344
1955.43	0.0365171
1956.91	-0.0354605
1958.4	0.391001
1959.88	0.114405
1961.36	-0.0928364
1962.84	0.0259361
1964.32	0.16157
1965.8	0.0911026
1967.27	-0.0484047
1968.75	0.273458
1970.23	0.0302649
1971.71	0.419135
1973.19	0.0222569
1974.67	0.359434
1976.14	0.219081
1977.62	-0.159377
1979.1	0.415946
1980.58	0.24204
1982.05	0.136194
1983.53	0.318972
1985	-0.0250196
1986.48	-0.199117
1987.95	0.0337543
1989.43	-0.122921
1990.9	0.398149
1992.38	0.175313
1993.85	0.19033
1995.33	0.121619
1996.8	0.20541
1998.27	-0.487751
1999.75	-0.0834808
2001.22	0.319902
2002.69	-0.255826
2004.16	0.214082
2005.64	0.127795
2007.11	-0.0250931
2008.58	0.0250587
2010.05	-0.0250216
2011.52	0.565067
2012.99	0.347155
2014.46	0.381321
2015.93	0.0445929
2017.4	0.0772152
2018.87	-0.0254498
2020.34	0.224311
2021.81	-0.114087
2023.28	-0.200075
2024.75	0.452977
2026.22	-0.570648
2027.69	-0.133476
2029.15	0.137299
2030.62	0.308737
2032.09	0.179119
2033.56	-0.000487328
2035.02	0.206006
2036.49	0.0594959
2037.96	-0.0875893
2039.42	-0.0166321
2040.89	-0.164229
2042.35	0.0247278
2043.82	-0.306931
2045.28	0.253796
2046.75	0.0918293
2048.21	-0.238482
2049.67	-0.232366
2051.14	0.244953
2052.6	0.28262
2054.07	0.149919
2055.53	0.268523
2056.99	0.116044
2058.45	-0.155034
2059.92	0.0118904
2061.38	0.0106878
2062.84	0.144895
2064.3	0.16217
2065.76	0.331837
2067.22	0.233035
2068.68	0.134772
2070.14	0.322941
2071.6	0.292356
2073.06	0.497347
2074.52	0.079073
2075.98	0.0982685
2077.44	0.352886
2078.9	0.0682411
2080.36	-0.0652523
2081.82	0.289025
2083.27	-0.249583
2084.73	0.00231838
2086.19	0.152448
2087.65	0.116923
2089.1	0.400351
2090.56	0.128983
2092.02	0.176805
2093.47	0.409063
2094.93	-0.180917
2096.38	-0.0667343
2097.84	0.348162
2099.29	-0.00797749
2100.75	0.0374813
2102.2	0.0663567
2103.66	0.396514
2105.11	0.260178
2106.56	-0.00820637
2108.02	0.191539
2109.47	0.158049
2110.92	0.607505
2112.38	0.00561523
2113.83	0.202132
2115.28	-0.451703
2116.73	0.324478
2118.18	0.136213
2119.63	0.264816
2121.09	0.113012
2122.54	0.0460052
2123.99	0.0135002
2125.44	0.114232
2126.89	0.297608
2128.34	0.231362
2129.79	0.362734
2131.23	0.443102
2132.68	0.0426102
2134.13	0.238091
2135.58	0.0537767
2137.03	0.300663
2138.48	0.00374603
2139.92	0.0390615
2141.37	0.0427666
2142.82	0.196342
2144.27	0.218271
2145.71	-0.00791836
2147.16	0.0469103
2148.6	0.316532
2150.05	0.386721
2151.49	0.257205
2152.94	0.193053
2154.38	0.293852
2155.83	0.195417
2157.27	0.395235
2158.72	0.115291
2160.16	-0.329196
2161.6	-0.0267067
2163.05	-0.0208349
2164.49	-0.21273
2165.93	-0.0223351
2167.38	0.3344
2168.82	0.175308
2170.26	0.11429
2171.7	-0.0650463
2173.14	0.236346
2174.58	0.503216
2176.03	0.0876293
2177.47	0.00490856
2178.91	0.105734
2180.35	-0.308002
2181.79	0.0271654
2183.23	0.163362
2184.67	0.316479
2186.1	0.236808
2187.54	0.0905704
2188.98	0.543436
2190.42	0.297335
2191.86	0.100854
2193.3	-0.312771
2194.73	0.238134
2196.17	0.221345
2197.61	0.435728
2199.05	0.5153
2200.48	0.494109
2201.92	0.323384
2203.35	0.00417709
2204.79	0.134
2206.22	0.0159988
2207.66	0.461819
2209.1	0.26128
2210.53	0.325045
2211.97	0.189337
2213.4	0.0531378
2214.83	0.164765
2216.27	-0.03685
2217.7	0.142196
2219.13	-0.123081
2220.57	0.337945
2222	-0.00875854
2223.43	0.204295
2224.86	0.0207243
2226.29	-0.0160484
2227.72	0.291025
2229.16	0.169312
2230.59	0.19481
2232.02	-0.0257626
2233.45	0.245459
2234.88	-0.0718861
2236.31	0.380246
2237.74	0.180098
2239.17	0.11244
2240.6	0.0140085
2242.03	0.243413
2243.45	0.131412
2244.88	0.133905
2246.31	0.657763
2247.74	0.609221
2249.17	-0.0771046
2250.59	0.147632
2252.02	0.126274
2253.45	0.0716648
2254.87	0.0174198
2256.3	-0.0354652
2257.73	0.36814
2259.15	0.222517
2260.58	0.306728
2262	0.14975
2263.43	-0.0546637
2264.85	-0.0640345
2266.28	0.121394
2267.7	0.12734
2269.13	0.148721
2270.55	-0.302701
2271.97	0.498981
2273.4	0.258525
2274.82	0.425282
2276.24	-0.124627
2277.67	0.433618
2279.09	0.242297
2280.51	0.148655
2281.93	0.0059166
2283.35	-0.104345
2284.77	0.209661
2286.2	0.524016
2287.62	-0.304057
2289.04	0.0437222
2290.46	0.130679
2291.88	0.267001
2293.3	0.501684
2294.72	0.147528
2296.13	0.28404
2297.55	0.0603523
2298.97	0.213314
2300.39	0.169895
2301.81	-0.119271
2303.23	0.165733
2304.64	0.352689
2306.06	-0.297822
2307.48	0.0365868
2308.89	-0.155218
2310.31	0.194958
2311.73	0.150224
2313.14	-0.240115
2314.56	0.439519
2315.98	-0.526315
2317.39	-0.256761
2318.81	-0.00301456
2320.22	0.283789
2321.64	0.0913258
2323.05	-0.119473
2324.46	0.294763
2325.88	0.52527
2327.29	0.292266
2328.7	0.404881
2330.12	0.632839
2331.53	-0.109937
2332.94	0.169258
2334.35	-0.176178
2335.77	-0.0606241
2337.18	0.169592
2338.59	0.628924
2340	0.0844002
2341.41	0.524915
2342.82	0.176655
2344.23	0.435614
2345.64	0.0225325
2347.05	-0.0294352
2348.46	0.475233
2349.87	-0.0516787
2351.28	0.467599
2352.69	0.266482
2354.1	-0.0983219
2355.51	0.123769
2356.91	-0.0456877
2358.32	0.419497
2359.73	0.331385
2361.14	-0.113512
2362.54	0.0261841
2363.95	0.181668
2365.36	-0.00298023
2366.76	-0.187066
2368.17	-0.160361
2369.58	-0.245721
2370.98	-0.265314
2372.39	-0.0259504
2373.79	-0.0596852
2375.2	0.00353146
2376.6	0.227248
2378	-0.386415
2379.41	0.0116615
2380.81	-0.0900679
2382.22	0.352309
2383.62	0.232269
2385.02	-0.0796447
2386.43	0.0329151
2387.83	0.146035
2389.23	-0.226273
2390.63	0.295316
2392.03	0.498825
2393.44	0.146143
2394.84	0.0649595
2396.24	0.0798717
2397.64	0.222495
2399.04	0.0477886
2400.44	0.159558
2401.84	0.192158
2403.24	0.256546
2404.64	0.0188818
2406.04	0.0821462
2407.44	0.11278
2408.84	0.142659
2410.23	0.235598
2411.63	0.138524
2413.03	0.343175
2414.43	-0.16357
2415.83	0.106873
2417.22	0.41018
2418.62	0.128559
2420.02	0.401474
2421.41	0.0724521
2422.81	0.234116
2424.21	0.332184
2425.6	0.0975537
2427	0.00595665
2428.39	0.105345
2429.79	0.411839
2431.18	0.179766
2432.58	0.392118
2433.97	0.413578
2435.36	0.195693
2436.76	0.278232
2438.15	-0.196732
2439.54	0.0579724
2440.94	0.264072
2442.33	0.437777
2443.72	0.420656
2445.12	0.292344
2446.51	0.306682
2447.9	-0.0753055
2449.29	0.0657558
2450.68	0.270227
2452.07	0.237618
2453.46	-0.268945
2454.85	0.111405
2456.24	0.0335379
2457.64	0.0192461
2459.02	0.14716
2460.41	-0.358056
2461.8	0.00580263
2463.19	0.0684309
2464.58	-0.0117149
2465.97	0.350111
2467.36	0.0169721
2468.75	0.0469756
2470.13	0.108307
2471.52	-0.0199924
2472.91	-0.101508
2474.3	0.351619
2475.68	0.14281
2477.07	0.185457
2478.45	0.636296
2479.84	0.192124
2481.23	0.187837
2482.61	0.0424829
2484	0.303948
2485.38	-0.108383
2486.77	0.353975
2488.15	0.190077
2489.54	0.025887
2490.92	0.344459
2492.3	-0.0523467
2493.69	-0.121191
2495.07	-0.00255394
2496.45	0.427007
2497.84	0.469507
2499.22	-0.0450139
2500.6	0.0441027
2501.98	-0.0685444
2503.36	-0.212757
2504.75	-0.311212
2506.13	0.221717
2507.51	0.245342
2508.89	0.0845428
2510.27	-0.0755219
2511.65	0.179553
2513.03	0.143621
2514.41	0.0166445
2515.79	-0.124663
2517.17	0.392661
2518.55	0.114907
2519.93	-0.254085
2521.3	-0.134198
2522.68	0.0918055
2524.06	0.347242
2525.44	0.0377226
2526.82	0.00255394
2528.19	0.241691
2529.57	-0.0659122
2530.95	-0.0525837
2532.32	0.311724
2533.7	0.251774
2535.08	0.0861554
2536.45	0.0572376
2537.83	-0.0938096
2539.2	0.118834
2540.58	0.345783
2541.95	0.25351
2543.33	0.191896
2544.7	-0.0205932
2546.08	0.223125
2547.45	0.0280805
2548.82	0.12202
2550.2	0.337453
2551.57	0.112391
2552.94	-0.00730753
2554.32	0.0238166
2555.69	0.0844541
2557.06	-0.189133
2558.43	-0.00779438
2559.8	-0.417529
2561.18	0.234319
2562.55	0.401611
2563.92	-0.0367241
2565.29	-0.00487995
2566.66	0.163577
2568.03	0.0896497
2569.4	-0.06006
2570.77	0.0478783
2572.14	0.0346003
2573.51	0.0517144
2574.88	0.00827026
2576.25	0.161948
2577.61	0.209436
2578.98	0.0141172
2580.35	0.379502
2581.72	-0.195594
2583.09	-0.149336
2584.45	0.321171
2585.82	-0.04217
2587.19	0.216089
2588.55	0.383547
2589.92	-0.115719
2591.29	-0.145269
2592.65	0.249018
2594.02	0.172816
2595.38	0.171425
2596.75	0.0631256
2598.11	0.0449681
2599.48	-0.0642252
2600.84	0.0534449
2602.21	-0.100397
2603.57	-0.449733
2604.93	0.288152
2606.3	-0.181069
2607.66	0.299721
2609.02	0.417588
2610.39	0.0371213
2611.75	-0.238663
2613.11	0.417243
2614.47	-0.115532
2615.83	0.207859
2617.19	0.141054
2618.56	-0.104784
2619.92	0.234085
2621.28	0.214248
2622.64	0.105276
2624	0.160918
2625.36	0.141823
2626.72	0.331281
2628.08	0.237035
2629.44	0.202202
2630.8	0.00356674
2632.15	0.0727324
2633.51	0.156594
2634.87	0.269968
2636.23	0.26449
2637.59	0.184917
2638.94	0.446059
2640.3	0.499812
2641.66	-0.0376129
2643.02	0.120328
2644.37	0.145339
2645.73	-0.021543
2647.09	0.327395
2648.44	-0.0465989
2649.8	0.256241
2651.15	0.0139146
2652.51	0.197677
2653.86	0.0438361
2655.22	0.00822878
2656.57	0.0761967
2657.93	-0.0890574
2659.28	0.448863
2660.63	0.0508485
2661.99	-0.0692348
2663.34	0.204631
2664.69	-0.0334654
2666.05	0.0489612
2667.4	0.130825
2668.75	0.212455
2670.1	0.105058
2671.45	0.216397
2672.81	-0.136788
2674.16	0.0337949
2675.51	0.161178
2676.86	-0.204317
2678.21	-0.0903335
2679.56	-0.048171
2680.91	-0.164563
2682.26	0.0825772
2683.61	-0.0461669
2684.96	0.0144639
2686.31	0.104576
2687.66	0.136542
2689	-0.0503187
2690.35	-0.108071
2691.7	-0.051331
2693.05	0.279648
2694.4	0.0438862
2695.74	0.228491
2697.09	0.283104
2698.44	-0.0665898
2699.79	0.439664
2701.13	0.165612
2702.48	0.124607
2703.83	0.316393
2705.17	0.43635
2706.52	0.396929
2707.86	0.284666
2709.21	0.389677
2710.55	0.871978
2711.9	0.33747
2713.24	0.26748
2714.58	0.429961
2715.93	0.141737
2717.27	0.391345
2718.62	0.757232
2719.96	0.278966
2721.3	0.236699
2722.65	0.310405
2723.99	0.310896
2725.33	0.340088
2726.67	0.514469
2728.01	0.0335989
2729.35	0.352973
2730.7	0.322922
2732.04	0.467431
2733.38	0.219219
2734.72	0.349407
2736.06	0.450675
2737.4	0.130287
2738.74	0.391637
2740.08	0.303711
2741.42	0.506159
2742.76	0.184583
2744.1	0.196769
2745.43	-0.111235
2746.77	-0.114439
2748.11	-0.103293
2749.45	-0.0485969
2750.79	-0.0662818
2752.12	0.162736
2753.46	0.0874548
2754.8	-0.074544
2756.14	-0.00458336
2757.47	0.210281
2758.81	-0.0813894
2760.14	0.0616093
2761.48	0.306302
2762.81	0.261996
2764.15	0.116711
2765.49	0.448885
2766.82	-0.188712
2768.16	0.0698342
2769.49	0.124629
2770.82	0.235834
2772.16	0.432261
2773.49	-0.324944
2774.82	0.187306
2776.16	-0.18001
2777.49	0.101243
2778.82	-0.0632467
2780.16	0.0460172
2781.49	0.0692644
2782.82	-0.0365992
2784.15	-0.128033
2785.48	0.110262
2786.82	0.147904
2788.15	-0.157582
2789.48	0.196107
2790.81	0.278592
2792.14	-0.0385823
2793.47	0.24521
2794.8	0.143041
2796.13	0.0977621
2797.46	0.194839
2798.79	0.305597
2800.12	0.315951
2801.44	-0.0448532
2802.77	-0.00626326
2804.1	0.0890503
2805.43	0.0556669
2806.76	0.434527
2808.08	-0.112233
2809.41	0.151517
2810.74	0.0030551
2812.07	-0.144637
2813.39	-0.149292
2814.72	-0.351127
2816.05	0.185503
2817.37	-0.0423379
2818.7	-0.0145006
2820.02	0.367689
2821.35	0.140003
2822.67	0.294353
2824	-0.0903234
2825.32	0.403055
2826.65	0.0607362
2827.97	0.342005
2829.3	0.35475
2830.62	0.0989761
2831.94	0.324711
2833.26	0.408829
2834.59	0.436021
2835.91	0.816545
2837.23	1.02662
2838.56	0.854238
2839.88	0.908009
2841.2	1.17393
2842.52	1.11503
2843.84	1.62212
2845.16	1.60698
2846.48	1.76206
2847.8	1.62074
2849.12	1.64903
2850.45	1.7477
2851.77	2.22749
2853.08	1.88699
2854.4	1.98423
2855.72	2.30731
2857.04	2.16411
2858.36	2.60011
2859.68	2.79588
2861	2.42661
2862.32	3.39828
2863.63	2.61899
2864.95	2.88396
2866.27	2.96539
2867.59	3.61117
2868.9	3.62264
2870.22	3.78966
2871.54	4.01319
2872.85	3.47531
2874.17	4.17676
2875.48	4.45406
2876.8	4.36382
2878.11	4.39938
2879.43	4.23768
2880.74	4.23113
2882.06	4.50649
2883.37	4.85306
2884.69	4.33004
2886	4.24311
2887.31	4.22647
2888.63	4.68643
2889.94	4.23348
2891.25	4.31273
2892.57	4.46131
2893.88	4.65159
2895.19	4.7301
2896.5	4.02563
2897.82	4.6661
2899.13	4.99966
2900.44	4.8444
2901.75	4.64774
2903.06	4.67514
2904.37	4.95447
2905.68	5.1362
2906.99	4.78702
2908.3	5.25006
2909.61	5.71418
2910.92	5.38145
2912.23	6.12638
2913.54	5.65273
2914.85	6.38144
2916.16	6.39413
2917.46	6.293
2918.77	6.24674
2920.08	6.48005
2921.39	6.74195
2922.7	6.97722
2924	7.47966
2925.31	6.99102
2926.62	7.32784
2927.92	7.32925
2929.23	7.24632
2930.54	7.14875
2931.84	7.59583
2933.15	7.14794
2934.45	7.32905
2935.76	7.10498
2937.06	7.80346
2938.37	7.59378
2939.67	7.13293
2940.98	6.86833
2942.28	7.09381
2943.58	6.35636
2944.89	5.89976
2946.19	6.21336
2947.49	5.87032
2948.8	5.27479
2950.1	5.85372
2951.4	5.11466
2952.7	5.24165
2954.01	5.59112
2955.31	4.96017
2956.61	4.96019
2957.91	4.99038
2959.21	5.38755
2960.51	5.45194
2961.81	4.95798
2963.11	5.03937
2964.41	5.17643
2965.71	4.67994
2967.01	4.94007
2968.31	4.29917
2969.61	4.52893
2970.91	4.33671
2972.21	4.44017
2973.51	4.74107
2974.81	4.09902
2976.1	3.90651
2977.4	4.23358
2978.7	3.88293
2980	3.79794
2981.29	3.97891
2982.59	3.54024
2983.89	3.38348
2985.18	3.60748
2986.48	3.24284
2987.78	3.1609
2989.07	2.84115
2990.37	2.53569
2991.66	2.5389
2992.96	2.14754
2994.25	1.93767
2995.55	2.04983
2996.84	1.86633
2998.14	1.80907
2999.43	1.96251
3000.73	1.75181
3002.02	2.13057
3003.31	1.41656
3004.61	1.58562
3005.9	1.3902
3007.19	1.20833
3008.48	1.05377
3009.77	0.479061
3011.07	0.966321
3012.36	1.07548
3013.65	0.738062
3014.94	0.75006
3016.23	0.651278
3017.52	0.539429
3018.81	0.678677
3020.1	0.567531
3021.4	0.28932
3022.68	0.427365
3023.97	0.661413
3025.26	0.422939
3026.55	0.48942
3027.84	0.611584
3029.13	0.236903
3030.42	0.347763
3031.71	-0.0234375
3033	0.407341
3034.28	0.368934
3035.57	0.205906
3036.86	0.400312
3038.15	0.455
3039.43	0.122466
3040.72	0.297793
3042.01	0.156119
3043.29	-0.0537252
3044.58	0.340053
3045.87	0.0645018
3047.15	0.460891
3048.44	0.381156
3049.72	0.180717
3051.01	0.636886
3052.29	0.588927
3053.58	0.445501
3054.86	0.560708
3056.15	0.579407
3057.43	0.665198
3058.71	0.573021
3060	0.358165
3061.28	0.933177
3062.56	0.515686
3063.84	0.235853
3065.13	0.528607
3066.41	0.809107
3067.69	0.696357
3068.97	0.502404
3070.26	0.403379
3071.54	0.657162
3072.82	0.352189
3074.1	0.290895
3075.38	0.337492
3076.66	0.410913
3077.94	0.335363
3079.22	0.179516
3080.5	0.201532
3081.78	0.143648
3083.06	0.249749
3084.34	0.492264
3085.62	0.259955
3086.9	0.230794
3088.18	0.295995
3089.45	0.238409
3090.73	0.11259
3092.01	0.271612
3093.29	0.0916505
3094.56	0.0476813
3095.84	0.193838
3097.12	-0.26996
3098.4	-0.232121
3099.67	-0.0724282
3100.95	0.181964
3102.22	0.0300393
3103.5	0.135722
3104.78	0.0523701
3106.05	0.145691
3107.33	0.226354
3108.6	0.362159
3109.88	0.377227
3111.15	0.176632
3112.43	0.301722
3113.7	0.115695
3114.97	0.254902
3116.25	-0.0536957
3117.52	0.165797
3118.79	0.11311
3120.07	0.574787
3121.34	0.208398
3122.61	0.302503
3123.88	0.5725
3125.16	0.449811
3126.43	0.666049
3127.7	0.300954
3128.97	0.180076
3130.24	0.343596
3131.51	0.331457
3132.79	0.413825
3134.06	0.360764
3135.33	0.523295
3136.6	0.307412
3137.87	0.46887
3139.14	0.0774732
3140.41	0.38652
3141.67	0.466544
3142.94	0.452684
3144.21	0.399094
3145.48	0.198647
3146.75	0.401315
3148.02	0.470425
3149.29	0.526671
