200.407	0.0656223
202.221	0.0864334
204.035	0.108395
205.849	-0.233533
207.665	0.665062
209.478	0.809093
211.291	0.0532894
213.104	0.486518
214.916	-0.00358963
216.73	0.0397186
218.541	0.567388
220.352	0.51405
222.163	0.219815
223.973	0.192731
225.785	-0.0753889
227.595	0.381496
229.404	0.499618
231.213	0.424031
233.022	0.0828619
234.83	-0.0647726
236.638	0.319169
238.448	0.36752
240.255	0.490569
242.062	0.109536
243.868	0.115485
245.675	0.266246
247.48	-0.115442
249.286	-0.330716
251.091	-0.210787
252.896	0.292715
254.702	0.0704174
256.506	0.137212
258.31	0.349269
260.113	-0.208214
261.916	-0.257853
263.719	0.0794811
265.521	0.128764
267.323	0.226617
269.125	-0.254303
270.926	0.469335
272.727	-0.134073
274.527	-0.208365
276.328	0.270307
278.127	0.168652
279.927	-0.0070591
281.726	0.272856
283.525	0.0455379
285.323	-0.567137
287.121	-0.363269
288.919	0.17583
290.716	0.379183
292.513	0.511608
294.31	0.286546
296.104	-0.152058
297.9	0.0799179
299.696	-0.261199
301.491	0.162058
303.286	0.0351057
305.081	-0.236063
306.875	0.0646114
308.669	-0.0882273
310.463	0.283733
312.256	-0.272404
314.047	-0.255307
315.839	0.406343
317.631	0.641117
319.423	0.734572
321.215	0.0665617
323.006	0.662493
324.794	0.352773
326.585	0.782976
328.375	0.496739
330.165	0.161703
331.954	0.0404673
333.741	0.204647
335.53	0.319091
337.318	0.742459
339.106	0.445937
340.894	0.0524101
342.679	0.375513
344.466	-0.615906
346.253	0.113565
348.039	-0.0403166
349.823	0.0450354
351.608	0.273598
353.393	0.406095
355.176	0.609068
356.961	0.762933
358.745	0.605533
360.529	-0.243432
362.31	-0.0212145
364.093	0.00973511
365.876	0.443831
367.657	-0.0730267
369.439	0.335071
371.221	0.623064
373	-0.083993
374.781	0.250028
376.56	0.0167637
378.34	-0.215546
380.12	0.189446
381.898	0.453522
383.677	0.0597935
385.456	0.396474
387.233	-0.22948
389.011	0.203094
390.787	0.119625
392.565	0.224796
394.34	-0.0922174
396.117	0.154729
397.894	-0.232351
399.668	0.202397
401.444	-0.0208845
403.217	0.530329
404.993	0.0239153
406.766	-0.0134439
408.54	0.206905
410.312	0.473765
412.086	0.22422
413.858	-0.00143433
415.631	0.383617
417.402	-0.286524
419.174	0.146731
420.944	1.09666
422.716	0.192201
424.486	0.27287
426.257	0.352704
428.025	-0.34295
429.794	0.533719
431.564	0.447879
433.332	-0.0132113
435.101	-0.0280704
436.868	0.402949
438.637	0.481296
440.403	0.159369
442.169	0.375289
443.937	0.237352
445.703	-0.25352
447.468	-0.0191336
449.234	-0.0194702
450.999	0.213877
452.765	0.353715
454.528	-0.392846
456.292	0.0504036
458.057	0.283206
459.819	-0.112638
461.582	0.725128
463.344	0.122295
465.107	0.0332355
466.868	0.13259
468.629	-0.0445261
470.392	-0.0108061
472.152	-0.0928402
473.912	1.03507
475.672	0.0195103
477.433	0.72528
479.192	0.497549
480.951	0.967622
482.709	0.599254
484.469	0.394994
486.226	0.704935
487.984	0.17805
489.74	0.328772
491.499	0.480685
493.255	0.212898
495.011	0.482676
496.767	0.214477
498.522	0.601529
500.277	0.379128
502.033	0.226152
503.788	0.612331
505.541	0.245865
507.295	0.982944
509.048	0.613538
510.801	0.76004
512.553	0.763876
514.308	0.672152
516.06	0.43799
517.811	0.508545
519.562	0.977721
521.313	-0.0345402
523.063	1.32564
524.814	0.360482
526.563	-0.345647
528.313	0.473002
530.062	0.564222
531.811	0.139683
533.559	0.510774
535.308	0.599592
537.055	0.196187
538.803	0.492662
540.55	0.0411358
542.297	0.428459
544.043	0.232848
545.789	-0.101763
547.535	-0.528284
549.281	0.27504
551.026	0.613596
552.771	0.743382
554.515	-0.0743189
556.259	-0.151444
558.003	0.463715
559.747	0.433043
561.49	0.425946
563.233	0.18936
564.975	0.781114
566.717	0.568691
568.459	0.33429
570.2	0.835402
571.942	0.213306
573.68	0.762805
575.421	0.39632
577.161	0.329543
578.901	0.149144
580.64	0.31378
582.379	-0.233662
584.118	-0.0694103
585.855	0.416069
587.593	0.187573
589.331	-0.249168
591.068	-0.157623
592.805	-0.204605
594.54	0.530499
596.277	-0.16083
598.013	0.229133
599.749	0.549742
601.484	0.363466
603.217	-0.191853
604.952	0.217462
606.687	-0.29388
608.421	0.411722
610.153	-0.168901
611.886	0.490162
613.619	-0.363955
615.35	-0.0479259
617.083	0.245114
618.815	0.0565538
620.547	0.27925
622.276	-0.0484438
624.008	0.0807085
625.738	0.323849
627.467	0.0881472
629.197	0.219493
630.927	0.284389
632.655	0.305484
634.384	0.35039
636.113	0.143968
637.839	-0.178094
639.568	0.433324
641.293	0.608191
643.021	0.11961
644.748	-0.00498486
646.473	0.234824
648.2	0.157591
649.924	-0.0304575
651.65	-0.147002
653.376	0.739866
655.099	-0.484658
656.824	0.112184
658.546	-0.177852
660.271	-0.286268
661.993	0.19759
663.716	-0.165351
665.438	0.132265
667.161	0.0853653
668.881	0.152092
670.604	0.0363522
672.324	0.288348
674.045	0.0389481
675.765	0.753675
677.486	0.140222
679.204	0.35249
680.925	-0.309232
682.643	0.774928
684.361	-0.282237
686.08	0.292898
687.797	0.544493
689.516	0.196258
691.232	0.238924
692.95	0.488342
694.666	0.460669
696.382	0.73148
698.099	0.241368
699.813	0.279768
701.528	0.478087
703.244	0.23861
704.958	0.067729
706.673	0.676929
708.387	0.780304
710.099	0.310318
711.814	0.619162
713.526	0.83569
715.238	0.891667
716.949	0.696327
718.663	1.07169
720.374	1.05909
722.084	0.226863
723.796	0.852267
725.506	0.430771
727.216	0.486732
728.925	0.655678
730.636	0.483819
732.345	0.515799
734.053	0.615396
735.761	0.737428
737.471	0.520796
739.178	0.417969
740.885	0.969861
742.592	0.643488
744.298	0.453797
746.006	0.918118
747.712	0.820947
749.417	0.85998
751.122	0.607772
752.827	1.009
754.532	1.45657
756.236	0.983084
757.942	0.82583
759.645	0.827412
761.348	0.762377
763.051	1.62281
764.753	1.37792
766.456	0.996091
768.158	1.24515
769.859	1.37935
771.56	1.62476
773.261	1.3487
774.964	1.43396
776.664	1.70057
778.364	1.71966
780.064	1.69497
781.763	1.71661
783.462	2.37212
785.16	1.82719
786.859	1.68738
788.557	1.54465
790.255	1.96444
791.952	1.00233
793.649	2.05002
795.346	1.4712
797.042	1.63801
798.738	1.35565
800.434	1.52548
802.127	1.4265
803.823	1.59813
805.517	1.52222
807.212	1.04119
808.906	1.72737
810.6	1.51391
812.293	1.70352
813.987	1.30973
815.68	1.22976
817.372	1.68671
819.064	1.11488
820.754	1.43739
822.446	1.38038
824.137	1.72551
825.828	1.96006
827.519	1.34999
829.209	2.12349
830.897	1.40766
832.587	1.87493
834.276	1.56448
835.966	1.05392
837.654	1.54691
839.341	1.79378
841.029	0.498129
842.717	0.451733
844.404	1.29872
846.091	1.52079
847.776	1.45392
849.463	1.29971
851.149	1.12517
852.833	1.3331
854.519	1.43017
856.204	1.52732
857.889	1.53374
859.572	1.47112
861.256	1.18156
862.94	1.67865
864.622	1.40871
866.305	0.461408
867.988	1.04636
869.669	0.774128
871.351	0.433837
873.033	0.476799
874.713	0.700217
876.395	0.675463
878.074	0.966703
879.755	1.57395
881.435	0.51045
883.114	1.36514
884.794	0.70634
886.471	0.362484
888.15	1.14558
889.829	0.0999527
891.506	0.654387
893.184	1.11681
894.861	0.78989
896.538	0.64243
898.214	0.404564
899.891	0.592597
901.566	0.779507
903.242	0.853553
904.916	0.569663
906.592	0.643788
908.266	0.183224
909.941	0.50387
911.614	0.668894
913.288	0.478589
914.961	0.577641
916.635	1.07585
918.306	0.930369
919.979	0.740954
921.651	0.486012
923.321	0.25456
924.994	0.289872
926.664	0.834542
928.336	0.960911
930.005	1.28696
931.674	1.67973
933.345	0.96965
935.014	1.00988
936.682	1.66802
938.352	0.496378
940.019	1.09022
941.687	0.538207
943.356	0.317603
945.022	1.09
946.689	0.735906
948.357	0.512604
950.022	0.795285
951.688	0.834016
953.355	0.762446
955.02	-0.0354137
956.684	0.800915
958.348	0.228665
960.014	0.452893
961.678	0.325393
963.341	0.308189
965.004	0.820379
966.669	0.423565
968.331	0.643681
969.993	0.906141
971.655	0.614713
973.316	0.301638
974.979	0.476354
976.64	0.763248
978.3	0.941013
979.961	0.97569
981.62	1.01006
983.28	0.368045
984.941	0.764728
986.6	0.539739
988.259	0.335413
989.917	0.970456
991.575	0.454985
993.233	0.514217
994.89	1.12532
996.547	0.809238
998.204	0.449406
999.86	1.69843
1001.52	1.53612
1003.17	2.09984
1004.83	1.34295
1006.49	1.48802
1008.14	0.930288
1009.79	0.176137
1011.45	0.300582
1013.1	0.315686
1014.76	0.703489
1016.41	0.171769
1018.06	0.822606
1019.72	0.970529
1021.37	0.660173
1023.02	0.722595
1024.67	0.545482
1026.32	0.937114
1027.97	0.563971
1029.62	1.06424
1031.27	0.973475
1032.92	0.990458
1034.57	0.896791
1036.22	1.34701
1037.87	0.575785
1039.52	0.436942
1041.17	0.581648
1042.82	0.618626
1044.47	0.244318
1046.11	0.914577
1047.76	0.435283
1049.41	0.391874
1051.06	0.0889454
1052.7	0.112511
1054.35	0.179883
1055.99	0.160366
1057.64	0.336263
1059.28	-0.0534964
1060.93	0.882522
1062.57	-0.00861835
1064.22	0.143186
1065.86	0.402763
1067.5	0.987271
1069.15	0.505932
1070.79	0.610731
1072.43	0.150923
1074.08	0.234359
1075.72	0.29693
1077.36	0.577506
1079	0.165223
1080.64	0.165677
1082.28	0.296262
1083.92	0.881419
1085.56	0.619514
1087.2	0.572633
1088.84	0.805425
1090.48	0.214075
1092.12	1.17909
1093.76	0.198154
1095.39	0.10382
1097.03	0.182821
1098.67	0.435184
1100.31	0.581127
1101.94	0.36285
1103.58	0.727153
1105.22	0.74839
1106.85	0.576615
1108.49	-0.670615
1110.12	-0.17672
1111.76	0.723949
1113.39	0.419377
1115.03	0.199899
1116.66	0.495045
1118.29	0.318223
1119.93	0.249356
1121.56	0.802402
1123.19	0.949246
1124.82	0.412266
1126.46	0.261422
1128.09	0.11135
1129.72	0.924114
1131.35	0.497238
1132.98	-0.185808
1134.61	0.712966
1136.24	0.0294065
1137.87	0.178558
1139.5	-0.271486
1141.13	-0.124211
1142.76	0.577287
1144.39	-0.321426
1146.01	0.0177555
1147.64	-0.111349
1149.27	0.037343
1150.9	0.314205
1152.53	0.548374
1154.15	-0.367498
1155.78	0.462021
1157.4	0.0143414
1159.03	-0.00736618
1160.65	-0.1134
1162.28	0.206799
1163.9	0.527843
1165.53	-0.149941
1167.15	0.128869
1168.78	-0.103478
1170.4	0.321733
1172.02	0.150076
1173.65	0.295524
1175.27	-0.11195
1176.89	0.77388
1178.51	-0.0572968
1180.14	-0.230462
1181.76	-0.191094
1183.38	-0.0243435
1185	-0.0690098
1186.62	0.455741
1188.24	0.134332
1189.86	-0.124968
1191.48	-0.0905762
1193.1	0.510116
1194.71	0.373557
1196.33	0.216408
1197.95	0.437385
1199.57	0.554791
1201.19	0.256194
1202.8	0.670345
1204.42	0.460313
1206.04	0.857457
1207.65	1.00538
1209.27	0.590354
1210.88	0.633592
1212.5	0.612747
1214.12	0.00646973
1215.73	0.544276
1217.35	0.351452
1218.96	0.532139
1220.57	0.255617
1222.19	0.208364
1223.8	0.473086
1225.41	1.19425
1227.03	1.02611
1228.64	0.900848
1230.25	0.756191
1231.86	0.860772
1233.47	1.17311
1235.08	0.742549
1236.69	1.65657
1238.31	1.04204
1239.92	1.17232
1241.52	1.69584
1243.13	1.66074
1244.74	1.37657
1246.35	1.77426
1247.96	1.38464
1249.57	1.15986
1251.18	0.459032
1252.78	1.39266
1254.39	0.982362
1256	1.1729
1257.6	1.2405
1259.21	1.01954
1260.82	0.861374
1262.42	0.662132
1264.03	0.980663
1265.63	1.31979
1267.24	0.622043
1268.84	0.918302
1270.45	1.0271
1272.05	1.13495
1273.65	0.702815
1275.26	0.933223
1276.86	1.26629
1278.46	1.22551
1280.06	0.459474
1281.67	0.563098
1283.27	0.790844
1284.87	0.336449
1286.47	0.751394
1288.07	1.35306
1289.67	1.21141
1291.27	1.15295
1292.87	1.71429
1294.47	1.40715
1296.07	1.3881
1297.67	1.67722
1299.27	1.71686
1300.87	1.71376
1302.47	1.11209
1304.06	0.922197
1305.66	1.80111
1307.26	1.32223
1308.85	1.62368
1310.45	1.82201
1312.05	1.61084
1313.64	2.09618
1315.24	1.74382
1316.83	1.59715
1318.43	1.7777
1320.02	1.67249
1321.62	1.3018
1323.21	1.43914
1324.8	1.73717
1326.4	1.62711
1327.99	1.84117
1329.59	2.11589
1331.18	1.70387
1332.77	1.71915
1334.36	1.41351
1335.95	1.77574
1337.54	1.65411
1339.14	1.93517
1340.73	1.56972
1342.32	1.78645
1343.91	1.5787
1345.5	1.61128
1347.09	1.42324
1348.67	2.29881
1350.26	1.25389
1351.85	1.45294
1353.44	1.2539
1355.03	1.45598
1356.62	1.41854
1358.2	1.92011
1359.79	1.02261
1361.38	1.8414
1362.96	1.30205
1364.55	1.10188
1366.14	1.12134
1367.72	1.46011
1369.31	1.56084
1370.89	1.02602
1372.48	1.3881
1374.06	1.35323
1375.64	1.02053
1377.23	0.668034
1378.81	1.52893
1380.39	1.15518
1381.98	1.17822
1383.56	1.16027
1385.14	0.982386
1386.72	1.22145
1388.3	0.924253
1389.89	1.18369
1391.47	0.967531
1393.05	0.672877
1394.63	0.715886
1396.21	1.4924
1397.79	1.81192
1399.37	0.80263
1400.95	0.862874
1402.52	1.17985
1404.1	1.00184
1405.68	1.7736
1407.26	0.904976
1408.84	0.808367
1410.42	1.75917
1411.99	1.14941
1413.57	1.28963
1415.15	1.07375
1416.72	1.31087
1418.3	1.56706
1419.87	1.76416
1421.45	1.05632
1423.02	0.940939
1424.6	0.827086
1426.17	1.22611
1427.75	1.0155
1429.32	1.13927
1430.89	0.71115
1432.47	1.38412
1434.04	1.30832
1435.61	1.38946
1437.18	1.66734
1438.76	1.90643
1440.33	1.94986
1441.9	2.85894
1443.47	2.01962
1445.04	2.67434
1446.61	2.11068
1448.18	1.94022
1449.75	1.57341
1451.32	2.36701
1452.89	2.17809
1454.46	2.61895
1456.03	2.31232
1457.6	2.67405
1459.16	2.28673
1460.73	1.77966
1462.3	2.33337
1463.87	2.19677
1465.43	1.82335
1467	1.98034
1468.56	1.37178
1470.13	1.29449
1471.7	1.8068
1473.26	0.613523
1474.83	0.872509
1476.39	0.72005
1477.96	1.60678
1479.52	0.905442
1481.08	1.36058
1482.65	0.972856
1484.21	0.741879
1485.77	0.667399
1487.34	0.592315
1488.9	0.516171
1490.46	-0.109312
1492.02	0.241893
1493.58	0.25864
1495.15	0.27385
1496.71	0.599857
1498.27	0.224263
1499.83	0.996741
1501.39	0.797678
1502.95	0.580694
1504.51	0.0355349
1506.07	0.827308
1507.63	0.65011
1509.18	0.143973
1510.74	0.332678
1512.3	0.231109
1513.86	0.244946
1515.41	-0.067894
1516.97	-0.1299
1518.53	-0.0569105
1520.08	0.188813
1521.64	0.223711
1523.2	0.0289068
1524.75	0.311222
1526.31	-0.0753565
1527.86	0.109594
1529.42	0.635832
1530.97	-0.130624
1532.52	0.110418
1534.08	-0.00827694
1535.63	0.309201
1537.19	0.267758
1538.74	0.472366
1540.29	1.03518
1541.84	0.0522327
1543.4	0.670841
1544.95	1.11885
1546.5	0.607848
1548.05	0.754467
1549.6	0.432147
1551.15	0.653653
1552.7	0.388777
1554.25	0.947531
1555.8	1.22644
1557.35	1.03992
1558.9	0.463463
1560.45	1.10151
1562	0.976018
1563.54	0.198534
1565.09	0.447588
1566.64	1.16334
1568.19	1.05789
1569.73	0.690743
1571.28	0.995217
1572.83	1.5048
1574.37	0.912881
1575.92	1.75837
1577.47	1.55867
1579.01	1.56467
1580.56	0.69364
1582.1	1.55983
1583.64	1.69864
1585.19	1.48315
1586.73	1.28663
1588.28	1.72603
1589.82	1.64167
1591.36	1.46325
1592.9	1.05958
1594.45	1.68555
1595.99	0.944196
1597.53	1.06484
1599.07	1.42989
1600.61	1.45822
1602.15	1.31808
1603.69	1.7599
1605.23	1.82583
1606.77	1.98451
1608.31	1.35204
1609.85	1.60082
1611.39	1.43405
1612.93	1.60368
1614.47	1.82821
1616.01	1.33931
1617.55	1.28251
1619.08	1.33919
1620.62	1.28477
1622.16	1.28775
1623.7	1.27276
1625.23	1.3514
1626.77	1.12993
1628.3	1.56228
1629.84	1.09543
1631.37	1.54393
1632.91	1.41249
1634.44	1.20678
1635.98	1.13257
1637.51	1.65602
1639.05	1.50848
1640.58	1.67793
1642.11	1.2133
1643.65	1.90261
1645.18	1.9015
1646.71	1.58342
1648.24	1.46988
1649.78	1.56107
1651.31	1.67155
1652.84	1.39351
1654.37	1.45043
1655.9	1.9898
1657.43	1.8432
1658.96	2.01089
1660.49	2.01062
1662.02	2.0645
1663.55	2.76421
1665.08	1.83682
1666.61	2.14774
1668.14	1.99814
1669.66	2.01597
1671.19	2.14574
1672.72	1.4844
1674.25	1.30266
1675.77	1.82041
1677.3	1.52736
1678.83	1.5647
1680.35	1.63782
1681.88	1.32429
1683.4	0.955757
1684.93	1.06486
1686.45	1.28415
1687.98	1.57688
1689.5	1.0636
1691.03	1.50318
1692.55	0.935852
1694.07	1.26531
1695.6	0.753316
1697.12	1.10043
1698.64	0.698133
1700.17	0.186453
1701.69	0.495726
1703.21	0.767644
1704.73	0.419524
1706.25	0.490076
1707.77	0.523901
1709.29	0.394116
1710.81	0.536833
1712.33	0.298655
1713.85	0.387121
1715.37	0.873757
1716.89	0.238076
1718.41	0.34433
1719.93	0.341992
1721.45	0.19544
1722.97	0.229843
1724.49	0.228943
1726	0.463168
1727.52	0.266253
1729.04	0.178236
1730.55	0.0737562
1732.07	0.769124
1733.59	0.603797
1735.1	-0.177359
1736.62	0.0867214
1738.13	0.387306
1739.65	0.212216
1741.16	-0.144955
1742.68	-0.0401902
1744.19	0.506032
1745.7	-0.219236
1747.22	0.178585
1748.73	0.354111
1750.24	0.297981
1751.76	0.501671
1753.27	0.118021
1754.78	0.0822487
1756.29	0.0851989
1757.8	0.0731978
1759.31	0.284191
1760.83	0.0499978
1762.34	0.00644445
1763.85	0.351823
1765.36	0.110696
1766.87	0.139824
1768.38	-0.080708
1769.89	0.0470982
1771.39	-0.142128
1772.9	0.0763564
1774.41	-0.0824575
1775.92	0.281938
1777.43	-0.119321
1778.94	-0.0574608
1780.44	-0.0121365
1781.95	-0.17515
1783.46	-0.110991
1784.96	0.020926
1786.47	0.012876
1787.97	0.215552
1789.48	0.102033
1790.99	-0.0951438
1792.49	0.0783987
1794	0.015378
1795.5	-0.041677
1797	-0.0964198
1798.51	-0.103023
1800.01	0.389353
1801.51	-0.00396156
1803.02	0.225147
1804.52	0.0499601
1806.02	0.0874472
1807.53	0.203187
1809.03	-0.0175095
1810.53	0.094378
1812.03	0.0591784
1813.53	0.374031
1815.03	0.210558
1816.53	-0.0146222
1818.03	0.0461879
1819.53	0.413596
1821.03	0.143127
1822.53	0.0209174
1824.03	0.114372
1825.53	0.180157
1827.03	0.301329
1828.53	-0.10047
1830.02	-0.130538
1831.52	0.175971
1833.02	-0.078547
1834.52	-0.0930839
1836.01	0.13896
1837.51	0.187855
1839.01	0.202734
1840.5	-0.253142
1842	0.239016
1843.49	-0.069428
1844.99	0.114128
1846.48	0.173736
1847.98	0.101626
1849.47	-0.234632
1850.97	-0.150855
1852.46	0.0926905
1853.95	0.0939522
1855.45	-0.13898
1856.94	0.0634665
1858.43	0.270641
1859.93	0.0378842
1861.42	0.133166
1862.91	0.133972
1864.4	0.0453658
1865.89	0.0203533
1867.38	0.263446
1868.87	0.181293
1870.36	-0.237998
1871.85	0.228488
1873.34	0.184397
1874.83	0.0420189
1876.32	0.261045
1877.81	0.210971
1879.3	0.202199
1880.79	-0.122768
1882.28	0.0868649
1882.52	0.142098
1884.02	0.0206504
1885.51	0.12521
1887.01	-0.101936
1888.5	0.105953
1889.99	0.000591755
1891.49	0.226512
1892.98	-0.276689
1894.47	-0.308983
1895.97	-0.270595
1897.46	0.324953
1898.95	-0.0534759
1900.44	-0.0326676
1901.93	0.00429487
1903.42	-0.0992475
1904.91	0.10908
1906.4	0.299213
1907.89	-0.205487
1909.38	0.245402
1910.87	-0.0320845
1912.36	0.229033
1913.85	0.195638
1915.34	0.283708
1916.83	-0.14863
1918.32	0.146781
1919.8	0.14711
1921.29	-0.147092
1922.78	0.251822
1924.27	-0.300954
1925.75	-0.177617
1927.24	0.431254
1928.73	0.140401
1930.21	0.0226102
1931.7	-0.0265498
1933.18	0.113656
1934.67	-0.0418396
1936.15	0.0264268
1937.64	-0.0100431
1939.12	0.298743
1940.61	-0.066071
1942.09	0.295011
1943.57	0.139067
1945.06	0.535727
1946.54	0.0360112
1948.02	0.174061
1949.51	-0.0847793
1950.99	0.0518656
1952.47	-0.0532546
1953.95	0.0648599
1955.43	-0.38431
1956.91	-0.042675
1958.4	-0.0956826
1959.88	0.10923
1961.36	0.125755
1962.84	0.193839
1964.32	0.0903907
1965.8	0.209263
1967.27	0.173434
1968.75	0.376594
1970.23	0.100412
1971.71	-0.0389457
1973.19	0.0437317
1974.67	0.194583
1976.14	-0.234134
1977.62	0.342769
1979.1	-0.000165462
1980.58	0.558852
1982.05	-0.157895
1983.53	0.162281
1985	0.0573921
1986.48	-0.33585
1987.95	-0.135362
1989.43	0.0311813
1990.9	0.0456934
1992.38	0.432987
1993.85	0.178283
1995.33	0.00891924
1996.8	0.127193
1998.27	0.363579
1999.75	0.0761075
2001.22	0.345267
2002.69	-0.29701
2004.16	0.140154
2005.64	0.155895
2007.11	0.222723
2008.58	0.239721
2010.05	0.190041
2011.52	-0.128549
2012.99	0.125236
2014.46	-0.058919
2015.93	-0.226751
2017.4	0.260757
2018.87	0.343773
2020.34	0.207841
2021.81	-0.280724
2023.28	-0.0132351
2024.75	0.120378
2026.22	-0.0135808
2027.69	-0.0793266
2029.15	-0.0601006
2030.62	-0.0398808
2032.09	0.26635
2033.56	0.23741
2035.02	0.275604
2036.49	-0.0560536
2037.96	0.367845
2039.42	-0.0991383
2040.89	0.00518656
2042.35	0.446121
2043.82	0.215107
2045.28	0.270667
2046.75	0.225852
2048.21	0.198064
2049.67	0.287965
2051.14	0.309722
2052.6	-0.310575
2054.07	0.180765
2055.53	0.299723
2056.99	-0.256739
2058.45	0.248199
2059.92	0.0788522
2061.38	0.431904
2062.84	0.246724
2064.3	0.129717
2065.76	0.164952
2067.22	-0.371368
2068.68	0.102508
2070.14	0.307394
2071.6	0.293518
2073.06	0.346871
2074.52	-0.121987
2075.98	0.250842
2077.44	0.438169
2078.9	0.221016
2080.36	0.272951
2081.82	0.408624
2083.27	0.089242
2084.73	0.42574
2086.19	0.273613
2087.65	-0.0806351
2089.1	0.573479
2090.56	0.28613
2092.02	0.217266
2093.47	0.21552
2094.93	0.0123348
2096.38	-0.358578
2097.84	0.158185
2099.29	0.355753
2100.75	-0.0659685
2102.2	0.0144143
2103.66	0.111984
2105.11	0.126938
2106.56	-0.00724173
2108.02	-0.0738502
2109.47	0.159963
2110.92	0.0431824
2112.38	-0.224444
2113.83	0.0898414
2115.28	0.518973
2116.73	0.11546
2118.18	0.211182
2119.63	0.374135
2121.09	0.22315
2122.54	-0.12529
2123.99	0.0249248
2125.44	-0.00681877
2126.89	0.309425
2128.34	0.0943842
2129.79	-0.0884032
2131.23	0.0924106
2132.68	0.106919
2134.13	0.303354
2135.58	0.0867972
2137.03	0.20205
2138.48	0.368173
2139.92	0.10599
2141.37	0.0267496
2142.82	0.146737
2144.27	0.316914
2145.71	0.239074
2147.16	0.641104
2148.6	-0.149567
2150.05	-0.0467024
2151.49	0.254336
2152.94	-0.0252271
2154.38	0.373944
2155.83	0.0272079
2157.27	-0.153762
2158.72	0.0467577
2160.16	0.281346
2161.6	-0.0461364
2163.05	0.174511
2164.49	0.313543
2165.93	0.287348
2167.38	0.477033
2168.82	0.100952
2170.26	0.371873
2171.7	0.258821
2173.14	0.0278902
2174.58	-0.00437069
2176.03	0.378725
2177.47	0.213123
2178.91	-0.134781
2180.35	0.216277
2181.79	0.185568
2183.23	0.171893
2184.67	-0.0744486
2186.1	-0.0380292
2187.54	0.331205
2188.98	0.251262
2190.42	0.254495
2191.86	0.224241
2193.3	-0.272748
2194.73	0.12841
2196.17	-0.0211139
2197.61	-0.105363
2199.05	-0.0909324
2200.48	0.205206
2201.92	-0.080286
2203.35	0.182573
2204.79	0.230321
2206.22	0.295337
2207.66	-0.0534849
2209.1	0.276797
2210.53	0.10967
2211.97	0.256287
2213.4	0.10464
2214.83	0.217382
2216.27	0.198351
2217.7	0.279142
2219.13	-0.0680008
2220.57	0.393505
2222	0.310955
2223.43	0.376209
2224.86	0.193381
2226.29	0.585436
2227.72	0.317989
2229.16	0.115774
2230.59	0.274342
2232.02	0.661788
2233.45	0.164701
2234.88	0.47043
2236.31	0.286363
2237.74	0.283336
2239.17	0.281713
2240.6	0.00427771
2242.03	0.135984
2243.45	0.105474
2244.88	0.336206
2246.31	0.256542
2247.74	0.289885
2249.17	-0.0859337
2250.59	0.156133
2252.02	0.559315
2253.45	-0.079628
2254.87	0.225134
2256.3	0.56291
2257.73	-0.02282
2259.15	0.464619
2260.58	0.289017
2262	0.212527
2263.43	0.0721698
2264.85	-0.230645
2266.28	0.213917
2267.7	0.186572
2269.13	-0.0367737
2270.55	0.0810218
2271.97	-0.371387
2273.4	0.201909
2274.82	0.303105
2276.24	0.274145
2277.67	0.359393
2279.09	0.0208635
2280.51	0.138695
2281.93	-0.0371013
2283.35	0.406908
2284.77	0.345284
2286.2	0.349076
2287.62	0.0592403
2289.04	-0.197806
2290.46	0.0517802
2291.88	0.203688
2293.3	-0.0203323
2294.72	0.262637
2296.13	-0.272646
2297.55	0.190481
2298.97	0.129793
2300.39	-0.193055
2301.81	0.0415163
2303.23	-0.0680084
2304.64	0.232832
2306.06	0.320425
2307.48	0.177805
2308.89	0.215469
2310.31	0.236279
2311.73	0.388397
2313.14	0.0469518
2314.56	0.0512238
2315.98	0.0395565
2317.39	0.127291
2318.81	-0.246126
2320.22	-0.0593395
2321.64	-0.0546637
2323.05	0.328259
2324.46	0.412434
2325.88	0.131895
2327.29	0.443983
2328.7	0.507937
2330.12	0.489604
2331.53	0.192087
2332.94	0.0766659
2334.35	0.0935674
2335.77	-0.0538664
2337.18	0.0944772
2338.59	-0.0867858
2340	0.142084
2341.41	0.107249
2342.82	0.351061
2344.23	0.364922
2345.64	0.29702
2347.05	0.409587
2348.46	0.292872
2349.87	0.42139
2351.28	-0.17011
2352.69	-0.238729
2354.1	0.116349
2355.51	-0.116583
2356.91	-0.0236173
2358.32	-0.0772667
2359.73	0.177977
2361.14	-0.297601
2362.54	-0.0750299
2363.95	0.00122356
2365.36	-0.197762
2366.76	0.0724797
2368.17	-0.206326
2369.58	0.274259
2370.98	0.0296946
2372.39	0.591928
2373.79	-0.198276
2375.2	0.139219
2376.6	0.0578299
2378	-0.10466
2379.41	0.181856
2380.81	0.177708
2382.22	0.284747
2383.62	0.358822
2385.02	-0.111315
2386.43	-0.052815
2387.83	-0.0416827
2389.23	0.145664
2390.63	0.110569
2392.03	0.0923095
2393.44	-0.0524864
2394.84	0.137448
2396.24	-0.022018
2397.64	0.375338
2399.04	0.312124
2400.44	-0.195495
2401.84	0.297942
2403.24	0.156011
2404.64	0.442561
2406.04	0.442584
2407.44	-0.0975986
2408.84	-0.0510683
2410.23	0.169533
2411.63	-0.291187
2413.03	-0.0857954
2414.43	0.183687
2415.83	0.169204
2417.22	0.0607114
2418.62	-0.0788054
2420.02	0.0827904
2421.41	-0.0724421
2422.81	0.152241
2424.21	0.345086
2425.6	0.268627
2427	0.240075
2428.39	0.338984
2429.79	0.248355
2431.18	0.0153613
2432.58	0.449006
2433.97	0.231484
2435.36	0.0447402
2436.76	0.476498
2438.15	0.319253
2439.54	0.192835
2440.94	0.161073
2442.33	0.0813046
2443.72	0.191797
2445.12	0.111727
2446.51	0.0157528
2447.9	0.268403
2449.29	-0.144476
2450.68	0.203162
2452.07	0.123573
2453.46	-0.224392
2454.85	0.409253
2456.24	0.410502
2457.64	0.0323672
2459.02	0.0812163
2460.41	0.0347476
2461.8	0.0983839
2463.19	0.145593
2464.58	-0.123649
2465.97	0.317767
2467.36	0.0799522
2468.75	0.0316443
2470.13	0.235562
2471.52	0.265548
2472.91	-0.0358291
2474.3	-0.0540147
2475.68	-0.21421
2477.07	0.301423
2478.45	0.172293
2479.84	0.13764
2481.23	0.291318
2482.61	0.303693
2484	-0.0756621
2485.38	-0.0327048
2486.77	0.290559
2488.15	0.346987
2489.54	0.0598526
2490.92	-0.242218
2492.3	0.0786119
2493.69	-0.15952
2495.07	-0.163538
2496.45	0.127829
2497.84	0.357424
2499.22	-0.187014
2500.6	-0.220509
2501.98	-0.00722504
2503.36	0.29763
2504.75	0.15389
2506.13	0.133253
2507.51	0.112476
2508.89	0.0303364
2510.27	0.0408235
2511.65	0.00572491
2513.03	-0.274011
2514.41	0.136553
2515.79	0.0267477
2517.17	-0.204733
2518.55	0.16068
2519.93	0.0215693
2521.3	0.432228
2522.68	0.231371
2524.06	0.0149002
2525.44	0.209718
2526.82	0.12992
2528.19	0.17227
2529.57	0.139331
2530.95	-0.120394
2532.32	0.0163169
2533.7	0.214731
2535.08	0.0794129
2536.45	0.308684
2537.83	0.446277
2539.2	-0.14591
2540.58	0.0207634
2541.95	0.247766
2543.33	0.216886
2544.7	0.292831
2546.08	0.202829
2547.45	0.356437
2548.82	-0.0961347
2550.2	0.118853
2551.57	0.06038
2552.94	0.274409
2554.32	0.335892
2555.69	0.229783
2557.06	0.290147
2558.43	-0.362294
2559.8	0.0469422
2561.18	0.0774684
2562.55	0.275146
2563.92	-0.0571589
2565.29	0.0806293
2566.66	0.173134
2568.03	-0.173789
2569.4	0.176431
2570.77	0.178077
2572.14	0.36164
2573.51	-0.152009
2574.88	0.0165162
2576.25	0.0486431
2577.61	-0.0102596
2578.98	0.0671358
2580.35	0.174601
2581.72	0.175622
2583.09	0.146039
2584.45	0.207241
2585.82	0.0864892
2587.19	-0.261505
2588.55	-0.169805
2589.92	-0.199279
2591.29	-0.0773034
2592.65	-0.0617476
2594.02	0.28649
2595.38	-0.168828
2596.75	0.14744
2598.11	0.0997252
2599.48	0.263449
2600.84	0.306171
2602.21	0.107587
2603.57	0.392734
2604.93	0.195199
2606.3	-0.0623837
2607.66	-0.00336075
2609.02	0.0700741
2610.39	-0.0080781
2611.75	0.168778
2613.11	0.194108
2614.47	-0.00651646
2615.83	0.0781832
2617.19	0.057941
2618.56	0.113052
2619.92	-0.340138
2621.28	0.0302744
2622.64	-0.0925579
2624	0.143309
2625.36	0.0654521
2626.72	0.241012
2628.08	0.252159
2629.44	0.0546021
2630.8	0.065485
2632.15	0.0168014
2633.51	0.0275712
2634.87	0.349975
2636.23	0.330743
2637.59	-0.0441041
2638.94	-0.0629692
2640.3	0.0810428
2641.66	0.0771818
2643.02	0.0292072
2644.37	0.129046
2645.73	0.110664
2647.09	0.195196
2648.44	-0.0449638
2649.8	-0.0939884
2651.15	0.047699
2652.51	-0.0901642
2653.86	0.388584
2655.22	0.236705
2656.57	-0.163081
2657.93	0.302066
2659.28	0.0651617
2660.63	0.25282
2661.99	0.381724
2663.34	0.174097
2664.69	0.0245037
2666.05	0.122517
2667.4	0.147157
2668.75	0.273606
2670.1	0.269103
2671.45	0.0614452
2672.81	0.0434198
2674.16	0.258214
2675.51	0.153886
2676.86	0.282209
2678.21	0.367414
2679.56	-0.12679
2680.91	0.00333595
2682.26	0.0763125
2683.61	0.280674
2684.96	0.195752
2686.31	0.0240602
2687.66	-0.0172334
2689	0.14385
2690.35	0.144032
2691.7	-0.00227213
2693.05	0.213114
2694.4	0.166562
2695.74	0.119921
2697.09	-0.0566039
2698.44	-0.116228
2699.79	0.288697
2701.13	0.260499
2702.48	0.146504
2703.83	0.236073
2705.17	0.398593
2706.52	0.242211
2707.86	0.332172
2709.21	0.45093
2710.55	0.438786
2711.9	0.252104
2713.24	0.515657
2714.58	0.430467
2715.93	0.403331
2717.27	0.21608
2718.62	-0.102393
2719.96	0.0298009
2721.3	0.30725
2722.65	0.19142
2723.99	0.308105
2725.33	0.322576
2726.67	0.176651
2728.01	0.379795
2729.35	0.0588346
2730.7	0.625411
2732.04	0.158869
2733.38	0.376204
2734.72	0.244529
2736.06	0.389371
2737.4	0.127067
2738.74	0.0829177
2740.08	0.32943
2741.42	0.00846624
2742.76	0.137793
2744.1	0.528123
2745.43	0.39472
2746.77	0.232039
2748.11	0.519324
2749.45	0.255047
2750.79	0.353714
2752.12	0.322016
2753.46	0.189062
2754.8	0.375062
2756.14	0.025147
2757.47	0.442973
2758.81	0.310684
2760.14	-0.0383525
2761.48	0.0761509
2762.81	0.133095
2764.15	-0.0846515
2765.49	0.247412
2766.82	0.174008
2768.16	0.0131531
2769.49	-0.206381
2770.82	0.266912
2772.16	0.0309763
2773.49	-0.205369
2774.82	0.279121
2776.16	0.0857491
2777.49	0.1808
2778.82	0.31924
2780.16	0.285434
2781.49	0.0652299
2782.82	0.103699
2784.15	0.0703626
2785.48	0.0370445
2786.82	0.319008
2788.15	0.099999
2789.48	-0.0609698
2790.81	0.222211
2792.14	0.119744
2793.47	0.460811
2794.8	-0.155796
2796.13	0.199249
2797.46	0.153734
2798.79	0.0507169
2800.12	0.132998
2801.44	-0.0560341
2802.77	-0.330579
2804.1	-0.0777555
2805.43	0.131741
2806.76	-0.1434
2808.08	0.0080657
2809.41	-0.111033
2810.74	0.0824857
2812.07	0.233589
2813.39	0.0875158
2814.72	0.0986032
2816.05	0.436772
2817.37	0.024519
2818.7	0.349753
2820.02	0.164746
2821.35	0.00776291
2822.67	0.16208
2824	0.400882
2825.32	0.00190496
2826.65	0.311203
2827.97	0.0261064
2829.3	0.15205
2830.62	0.0942931
2831.94	0.234873
2833.26	-0.0634012
2834.59	0.218439
2835.91	0.0469947
2837.23	0.285548
2838.56	0.410504
2839.88	0.605947
2841.2	0.589297
2842.52	0.360941
2843.84	0.825662
2845.16	0.711428
2846.48	1.10644
2847.8	0.978833
2849.12	0.794695
2850.45	1.11916
2851.77	1.2595
2853.08	1.49834
2854.4	1.11507
2855.72	1.35343
2857.04	1.67646
2858.36	0.798857
2859.68	1.8139
2861	1.96716
2862.32	2.00716
2863.63	2.34323
2864.95	2.55191
2866.27	2.68993
2867.59	2.68707
2868.9	2.8397
2870.22	2.66839
2871.54	2.87786
2872.85	3.1434
2874.17	3.32363
2875.48	2.91123
2876.8	3.14583
2878.11	3.50612
2879.43	3.72512
2880.74	3.59278
2882.06	3.13818
2883.37	3.58371
2884.69	3.79116
2886	3.45159
2887.31	3.53329
2888.63	3.64261
2889.94	3.94754
2891.25	3.80277
2892.57	3.81173
2893.88	3.87656
2895.19	4.05369
2896.5	3.71353
2897.82	3.94828
2899.13	3.72217
2900.44	4.14036
2901.75	3.94341
2903.06	3.85859
2904.37	4.44528
2905.68	4.57064
2906.99	4.22095
2908.3	4.15173
2909.61	4.6709
2910.92	4.78496
2912.23	5.22101
2913.54	5.4325
2914.85	5.12465
2916.16	5.87911
2917.46	6.04391
2918.77	5.85784
2920.08	5.83957
2921.39	6.39523
2922.7	6.14108
2924	6.25183
2925.31	6.34974
2926.62	6.16869
2927.92	6.0436
2929.23	6.33754
2930.54	6.7847
2931.84	6.68617
2933.15	6.78307
2934.45	6.7821
2935.76	6.58559
2937.06	6.2635
2938.37	6.09536
2939.67	6.27683
2940.98	6.6125
2942.28	5.85907
2943.58	5.70762
2944.89	5.30577
2946.19	5.42221
2947.49	5.56731
2948.8	4.69054
2950.1	4.82023
2951.4	4.6123
2952.7	4.68269
2954.01	4.4438
2955.31	4.33062
2956.61	4.20426
2957.91	4.34564
2959.21	4.62951
2960.51	4.36984
2961.81	4.67246
2963.11	4.12048
2964.41	3.93222
2965.71	4.26224
2967.01	3.76191
2968.31	4.1879
2969.61	3.88221
2970.91	3.75911
2972.21	3.94574
2973.51	3.48544
2974.81	3.46126
2976.1	3.43651
2977.4	3.56553
2978.7	2.82006
2980	3.19946
2981.29	3.14125
2982.59	3.02633
2983.89	2.88367
2985.18	2.84047
2986.48	2.57378
2987.78	2.40679
2989.07	2.53576
2990.37	1.97635
2991.66	2.11921
2992.96	2.20498
2994.25	1.74168
2995.55	1.90976
2996.84	1.76821
2998.14	1.64065
2999.43	1.45731
3000.73	1.00815
3002.02	1.2466
3003.31	1.27506
3004.61	0.89736
3005.9	0.785773
3007.19	1.02376
3008.48	0.743212
3009.77	0.727962
3011.07	0.97763
3012.36	0.51456
3013.65	0.596284
3014.94	0.747915
3016.23	0.593424
3017.52	0.147363
3018.81	0.537087
3020.1	0.189389
3021.4	0.105861
3022.68	0.299617
3023.97	0.117672
3025.26	0.351423
3026.55	0.307563
3027.84	0.0566101
3029.13	-0.137765
3030.42	0.00083065
3031.71	0.36133
3033	-0.0507226
3034.28	0.186398
3035.57	0.271219
3036.86	0.134406
3038.15	0.0929041
3039.43	0.118915
3040.72	-0.0212092
3042.01	-0.202789
3043.29	0.0684156
3044.58	-0.0300317
3045.87	0.0780711
3047.15	-0.0582924
3048.44	0.0939846
3049.72	0.302322
3051.01	0.0887761
3052.29	0.148829
3053.58	0.236207
3054.86	-0.0452275
3056.15	0.0546165
3057.43	0.139982
3058.71	0.0884585
3060	0.581454
3061.28	0.39379
3062.56	0.34311
3063.84	0.375142
3065.13	0.571528
3066.41	0.306797
3067.69	0.477922
3068.97	0.404664
3070.26	0.249615
3071.54	0.0803289
3072.82	0.277369
3074.1	0.13355
3075.38	0.396803
3076.66	0.157108
3077.94	0.230182
3079.22	0.154791
3080.5	0.216257
3081.78	0.183979
3083.06	0.0441504
3084.34	0.108371
3085.62	0.335565
3086.9	0.223202
3088.18	-0.242587
3089.45	0.0376792
3090.73	0.0326157
3092.01	-0.0403428
3093.29	0.117465
3094.56	-0.117789
3095.84	0.230308
3097.12	0.225934
3098.4	0.19445
3099.67	0.000327587
3100.95	-0.0311556
3102.22	0.113521
3103.5	-0.080092
3104.78	-0.191973
3106.05	0.0892243
3107.33	-0.210808
3108.6	-0.0499244
3109.88	0.138893
3111.15	-0.0234594
3112.43	0.017848
3113.7	-0.116596
3114.97	0.0471396
3116.25	0.183581
3117.52	0.183877
3118.79	-0.128535
3120.07	-0.0619082
3121.34	0.12611
3122.61	-0.0522957
3123.88	-0.108696
3125.16	0.227792
3126.43	0.117761
3127.7	0.157109
3128.97	0.129241
3130.24	0.20989
3131.51	0.277124
3132.79	0.465881
3134.06	0.0329738
3135.33	0.34263
3136.6	0.0175099
3137.87	0.447491
3139.14	0.270412
3140.41	0.376224
3141.67	0.401289
3142.94	0.386274
3144.21	0.626807
3145.48	0.102857
3146.75	0.0226002
3148.02	0.318119
3149.29	0.707511
