200.407	0.188118
202.221	0.199731
204.035	0.212908
205.849	-0.234571
207.665	-0.243415
209.478	0.0146923
211.291	0.611471
213.104	0.744941
214.916	0.0523338
216.73	-0.00962448
218.541	0.437365
220.352	0.691072
222.163	-0.070075
223.973	0.500669
225.785	0.153531
227.595	-0.0963917
229.404	-0.346359
231.213	0.561906
233.022	0.0457878
234.83	0.398807
236.638	0.0783625
238.448	0.194689
240.255	0.338432
242.062	0.220098
243.868	0.0312376
245.675	-0.205896
247.48	0.713975
249.286	0.42368
251.091	-0.401624
252.896	0.121795
254.702	0.932134
256.506	-0.308205
258.31	0.429897
260.113	-0.444471
261.916	0.466612
263.719	-0.788212
265.521	0.512185
267.323	0.5123
269.125	0.271117
270.926	0.101286
272.727	-0.696787
274.527	-0.387388
276.328	-0.682565
278.127	0.562548
279.927	0.407165
281.726	0.56232
283.525	0.330101
285.323	-0.07166
287.121	0.294502
288.919	-0.227183
290.716	0.139454
292.513	-0.282682
294.31	0.445988
296.104	0.291231
297.9	0.209841
299.696	0.583234
301.491	-0.787306
303.286	0.492413
305.081	-0.21122
306.875	0.515837
308.669	0.121437
310.463	0.133246
312.256	1.33746
314.047	0.304996
315.839	1.4421
317.631	0.867283
319.423	0.246706
321.215	1.05729
323.006	1.41677
324.794	0.751305
326.585	0.658334
328.375	1.01897
330.165	0.231752
331.954	0.638137
333.741	0.300961
335.53	0.24811
337.318	0.670945
339.106	0.133986
340.894	0.982407
342.679	1.47048
344.466	1.00233
346.253	0.869643
348.039	0.117208
349.823	0.822085
351.608	0.858491
353.393	1.44303
355.176	0.546878
356.961	0.0550718
358.745	1.37319
360.529	0.520989
362.31	0.144709
364.093	0.481391
365.876	0.697807
367.657	0.604256
369.439	0.154079
371.221	0.556455
373	0.554807
374.781	-0.298107
376.56	0.574227
378.34	1.04446
380.12	1.2323
381.898	1.23315
383.677	0.859467
385.456	2.15713
387.233	1.10555
389.011	1.48928
390.787	1.59241
392.565	1.10963
394.34	1.35578
396.117	1.46161
397.894	1.26233
399.668	0.92187
401.444	-0.358681
403.217	0.826191
404.993	0.624308
406.766	0.679787
408.54	0.570106
410.312	-0.314589
412.086	-0.0724077
413.858	0.0528727
415.631	-0.0321455
417.402	0.47046
419.174	0.176133
420.944	0.35148
422.716	0.784816
424.486	0.372197
426.257	-0.018157
428.025	0.64681
429.794	1.09976
431.564	1.15358
433.332	0.222099
435.101	0.605401
436.868	0.284597
438.637	-0.0605211
440.403	0.0149975
442.169	0.557076
443.937	0.650374
445.703	1.02215
447.468	0.478828
449.234	0.684084
450.999	0.678805
452.765	0.207068
454.528	-0.403549
456.292	0.315279
458.057	0.101223
459.819	0.376243
461.582	0.558679
463.344	-0.326243
465.107	0.140126
466.868	0.586786
468.629	0.525846
470.392	0.513933
472.152	0.712307
473.912	0.700426
475.672	1.52467
477.433	1.8804
479.192	2.34989
480.951	1.65317
482.709	1.3061
484.469	0.890759
486.226	1.94558
487.984	1.60585
489.74	0.54564
491.499	1.35269
493.255	1.04058
495.011	0.611275
496.767	0.344898
498.522	1.5303
500.277	0.630101
502.033	0.478549
503.788	1.10068
505.541	1.01702
507.295	1.02545
509.048	1.07884
510.801	0.871224
512.553	2.00268
514.308	1.4378
516.06	1.97679
517.811	1.94931
519.562	1.40321
521.313	1.53789
523.063	1.41341
524.814	1.28873
526.563	0.835711
528.313	1.83688
530.062	1.0324
531.811	1.46958
533.559	1.13269
535.308	0.818028
537.055	0.805786
538.803	0.69827
540.55	-0.180217
542.297	0.829001
544.043	0.346289
545.789	0.143507
547.535	1.1947
549.281	0.20371
551.026	0.41937
552.771	-0.521789
554.515	0.595782
556.259	0.303289
558.003	-0.0342588
559.747	0.320616
561.49	0.238195
563.233	0.317657
564.975	0.581634
566.717	0.478557
568.459	0.35368
570.2	0.390923
571.942	1.37052
573.68	0.585732
575.421	0.468599
577.161	0.789629
578.901	0.378087
580.64	0.357649
582.379	0.773955
584.118	1.121
585.855	0.294017
587.593	0.960141
589.331	0.727565
591.068	0.654713
592.805	1.04127
594.54	0.66833
596.277	0.57152
598.013	0.934797
599.749	0.193294
601.484	0.831035
603.217	0.109972
604.952	0.628877
606.687	0.364298
608.421	0.282604
610.153	0.682747
611.886	0.234301
613.619	-0.00634766
615.35	0.281211
617.083	0.0647554
618.815	0.122647
620.547	0.820034
622.276	-0.200757
624.008	0.150259
625.738	0.0209837
627.467	0.16713
629.197	0.178675
630.927	0.467052
632.655	-0.360022
634.384	0.00088501
636.113	1.02356
637.839	0.332057
639.568	0.344701
641.293	-0.239552
643.021	0.746355
644.748	0.317123
646.473	0.00273514
648.2	-0.263408
649.924	-0.0482311
651.65	-0.19189
653.376	-0.0579519
655.099	0.125879
656.824	-0.119605
658.546	-0.204776
660.271	0.279848
661.993	0.215309
663.716	0.0334635
665.438	0.351292
667.161	-0.225041
668.881	-0.207971
670.604	0.404618
672.324	0.745479
674.045	0.311341
675.765	1.13997
677.486	0.411782
679.204	0.601044
680.925	0.053791
682.643	-0.24358
684.361	0.445837
686.08	0.534518
687.797	0.252627
689.516	1.05183
691.232	0.122482
692.95	-0.00147438
694.666	0.794925
696.382	0.254169
698.099	0.21858
699.813	-0.0026741
701.528	0.30376
703.244	0.47066
704.958	0.131118
706.673	0.847067
708.387	0.850457
710.099	0.234653
711.814	0.466438
713.526	1.04051
715.238	0.127838
716.949	0.632311
718.663	-0.0274477
720.374	0.841228
722.084	-0.0676327
723.796	0.413018
725.506	0.551709
727.216	0.371787
728.925	1.16742
730.636	0.487308
732.345	1.12164
734.053	1.25663
735.761	0.961954
737.471	0.71344
739.178	1.21077
740.885	0.603963
742.592	1.12593
744.298	1.31133
746.006	1.72346
747.712	1.52984
749.417	1.72052
751.122	1.28318
752.827	1.20746
754.532	2.39343
756.236	1.75925
757.942	1.7121
759.645	1.53174
761.348	2.41235
763.051	1.64797
764.753	2.50786
766.456	2.39581
768.158	3.50174
769.859	3.36157
771.56	3.44437
773.261	2.89181
774.964	2.90383
776.664	2.98442
778.364	2.84075
780.064	2.36002
781.763	2.80821
783.462	2.397
785.16	1.0786
786.859	2.22432
788.557	2.39229
790.255	1.94478
791.952	1.58451
793.649	1.78712
795.346	1.15423
797.042	1.98862
798.738	1.35997
800.434	1.79243
802.127	1.48398
803.823	1.31164
805.517	1.36409
807.212	1.57272
808.906	1.33045
810.6	1.22157
812.293	0.640707
813.987	0.956255
815.68	1.47242
817.372	0.913981
819.064	1.69751
820.754	1.40809
822.446	1.43198
824.137	1.61294
825.828	1.84007
827.519	1.8248
829.209	1.4569
830.897	1.15986
832.587	1.04462
834.276	0.820601
835.966	1.66829
837.654	0.954571
839.341	1.26577
841.029	1.03909
842.717	0.989276
844.404	1.8773
846.091	2.02895
847.776	1.2216
849.463	1.1997
851.149	1.8528
852.833	1.20975
854.519	1.30713
856.204	1.80887
857.889	1.68063
859.572	2.22497
861.256	1.86692
862.94	1.03312
864.622	1.00819
866.305	1.25254
867.988	0.752044
869.669	0.949901
871.351	0.831601
873.033	0.961176
874.713	0.458904
876.395	0.520672
878.074	0.695344
879.755	0.869934
881.435	0.705485
883.114	1.12708
884.794	0.892576
886.471	0.746614
888.15	0.98224
889.829	0.268435
891.506	0.162056
893.184	0.797298
894.861	0.912478
896.538	1.00353
898.214	0.396917
899.891	0.777377
901.566	0.237314
903.242	0.548146
904.916	0.343932
906.592	0.877069
908.266	1.16451
909.941	0.739805
911.614	1.16259
913.288	0.963154
914.961	1.00887
916.635	0.854904
918.306	0.546033
919.979	1.14566
921.651	0.439753
923.321	0.952215
924.994	1.66488
926.664	1.38576
928.336	0.866396
930.005	0.724161
931.674	1.39927
933.345	0.839193
935.014	2.0441
936.682	2.10247
938.352	1.23577
940.019	1.51759
941.687	1.09528
943.356	1.53437
945.022	1.31141
946.689	0.711608
948.357	0.771553
950.022	0.0786142
951.688	0.664049
953.355	0.433081
955.02	0.2924
956.684	0.486033
958.348	0.838385
960.014	0.643055
961.678	0.471688
963.341	0.211605
965.004	-0.0287809
966.669	0.125524
968.331	0.895831
969.993	0.380076
971.655	0.372024
973.316	-0.033556
974.979	1.04438
976.64	0.59886
978.3	0.664013
979.961	0.586319
981.62	0.508123
983.28	0.240005
984.941	0.235002
986.6	-0.0825396
988.259	0.394274
989.917	0.493075
991.575	0.54668
993.233	0.268676
994.89	0.476749
996.547	0.927434
998.204	0.760204
999.86	1.51839
1001.52	2.12092
1003.17	0.895466
1004.83	0.528925
1006.49	1.61312
1008.14	0.412121
1009.79	1.16629
1011.45	-0.843112
1013.1	-0.153667
1014.76	0.360246
1016.41	0.939793
1018.06	1.14747
1019.72	0.962399
1021.37	1.01941
1023.02	1.3621
1024.67	1.13783
1026.32	1.70115
1027.97	2.87621
1029.62	3.32909
1031.27	2.73154
1032.92	2.83053
1034.57	2.59957
1036.22	2.30136
1037.87	1.98055
1039.52	2.40017
1041.17	1.71079
1042.82	0.850355
1044.47	1.42726
1046.11	0.811896
1047.76	0.416601
1049.41	1.19635
1051.06	0.479321
1052.7	0.632185
1054.35	0.568359
1055.99	0.70015
1057.64	0.614244
1059.28	0.00584507
1060.93	0.766373
1062.57	0.699632
1064.22	0.675132
1065.86	0.518785
1067.5	0.839178
1069.15	0.310705
1070.79	0.520139
1072.43	0.59894
1074.08	1.15567
1075.72	1.36639
1077.36	1.96928
1079	1.57638
1080.64	1.90026
1082.28	1.68208
1083.92	2.06978
1085.56	2.17317
1087.2	2.62011
1088.84	0.746407
1090.48	1.16638
1092.12	1.25968
1093.76	2.12949
1095.39	1.81122
1097.03	1.92588
1098.67	1.78388
1100.31	2.20437
1101.94	1.18564
1103.58	0.729494
1105.22	0.834661
1106.85	1.65041
1108.49	1.06778
1110.12	0.999858
1111.76	1.68202
1113.39	1.58785
1115.03	0.762025
1116.66	1.82429
1118.29	1.14872
1119.93	0.817819
1121.56	1.53791
1123.19	0.739256
1124.82	1.65426
1126.46	1.32942
1128.09	1.69019
1129.72	1.88085
1131.35	1.04615
1132.98	0.511328
1134.61	0.468093
1136.24	0.637759
1137.87	0.656368
1139.5	0.694664
1141.13	0.539368
1142.76	-0.0646267
1144.39	1.08106
1146.01	0.329272
1147.64	0.431841
1149.27	0.407735
1150.9	1.61976
1152.53	0.872101
1154.15	0.103072
1155.78	0.206546
1157.4	-0.413601
1159.03	0.24327
1160.65	0.85842
1162.28	0.688238
1163.9	0.264381
1165.53	1.20203
1167.15	0.438422
1168.78	0.141202
1170.4	0.373203
1172.02	1.51589
1173.65	1.48701
1175.27	0.862265
1176.89	-0.122689
1178.51	-0.131456
1180.14	-0.266309
1181.76	0.150212
1183.38	0.376895
1185	0.328742
1186.62	-0.290723
1188.24	0.291265
1189.86	-0.690236
1191.48	0.0332508
1193.1	0.0380287
1194.71	0.377588
1196.33	-0.143438
1197.95	0.238531
1199.57	0.391848
1201.19	0.7779
1202.8	0.603335
1204.42	0.0986958
1206.04	1.01615
1207.65	0.746058
1209.27	0.997992
1210.88	0.60223
1212.5	0.433703
1214.12	0.137285
1215.73	0.504537
1217.35	0.369403
1218.96	0.482479
1220.57	0.636635
1222.19	0.895094
1223.8	0.968339
1225.41	1.49913
1227.03	1.03818
1228.64	0.724516
1230.25	0.971131
1231.86	1.59138
1233.47	1.07643
1235.08	2.15473
1236.69	1.0233
1238.31	1.73296
1239.92	1.8029
1241.52	1.33541
1243.13	1.32241
1244.74	1.74286
1246.35	2.03779
1247.96	1.93805
1249.57	1.25788
1251.18	1.83934
1252.78	2.02794
1254.39	1.59706
1256	1.27115
1257.6	1.40206
1259.21	1.61747
1260.82	1.42032
1262.42	1.41011
1264.03	0.778499
1265.63	1.38925
1267.24	1.12879
1268.84	0.991306
1270.45	1.39145
1272.05	1.27179
1273.65	1.33729
1275.26	1.23555
1276.86	0.718111
1278.46	1.31849
1280.06	1.17211
1281.67	1.29448
1283.27	1.70651
1284.87	0.836829
1286.47	1.23003
1288.07	2.12052
1289.67	0.718191
1291.27	1.17664
1292.87	1.75887
1294.47	0.811242
1296.07	1.98951
1297.67	1.74023
1299.27	1.79827
1300.87	1.8953
1302.47	2.17574
1304.06	1.7134
1305.66	1.16867
1307.26	2.04145
1308.85	2.11182
1310.45	2.67388
1312.05	2.49832
1313.64	2.32421
1315.24	2.45843
1316.83	2.57343
1318.43	2.40351
1320.02	3.0288
1321.62	2.40919
1323.21	2.29719
1324.8	2.81299
1326.4	2.26974
1327.99	3.02456
1329.59	3.191
1331.18	3.15723
1332.77	3.16738
1334.36	2.71664
1335.95	2.71297
1337.54	3.11357
1339.14	2.64605
1340.73	3.18378
1342.32	3.23435
1343.91	2.8998
1345.5	2.84534
1347.09	2.1093
1348.67	2.51913
1350.26	3.01192
1351.85	2.04787
1353.44	1.78763
1355.03	2.62882
1356.62	2.3112
1358.2	2.93204
1359.79	2.11326
1361.38	2.75062
1362.96	2.42851
1364.55	2.5448
1366.14	2.22297
1367.72	2.18145
1369.31	3.15697
1370.89	2.68131
1372.48	2.24777
1374.06	2.83078
1375.64	2.20106
1377.23	2.28785
1378.81	2.21474
1380.39	1.48354
1381.98	1.82494
1383.56	2.3631
1385.14	1.68682
1386.72	2.32172
1388.3	2.24132
1389.89	1.94363
1391.47	1.4292
1393.05	2.20569
1394.63	2.22874
1396.21	1.99375
1397.79	1.95611
1399.37	2.11518
1400.95	1.10417
1402.52	0.68719
1404.1	1.67524
1405.68	2.14886
1407.26	2.14895
1408.84	1.69588
1410.42	1.91545
1411.99	1.81892
1413.57	1.52422
1415.15	1.38632
1416.72	1.32622
1418.3	1.20647
1419.87	1.38277
1421.45	1.52098
1423.02	1.7991
1424.6	1.42999
1426.17	1.71225
1427.75	1.97565
1429.32	2.78984
1430.89	2.55949
1432.47	2.18972
1434.04	2.21213
1435.61	2.52884
1437.18	2.59004
1438.76	2.82919
1440.33	3.08942
1441.9	2.80081
1443.47	2.94567
1445.04	3.4056
1446.61	3.82657
1448.18	3.26499
1449.75	3.01827
1451.32	3.53902
1452.89	3.15613
1454.46	2.89171
1456.03	3.25675
1457.6	3.26677
1459.16	2.17276
1460.73	3.57551
1462.3	3.20419
1463.87	2.51592
1465.43	2.49492
1467	1.45189
1468.56	2.11857
1470.13	2.43261
1471.7	1.70834
1473.26	1.80976
1474.83	1.5789
1476.39	1.44676
1477.96	1.74612
1479.52	0.653555
1481.08	1.01151
1482.65	0.350217
1484.21	0.982137
1485.77	1.37828
1487.34	0.891878
1488.9	0.795568
1490.46	0.540336
1492.02	0.92774
1493.58	0.120008
1495.15	0.69682
1496.71	0.744632
1498.27	1.259
1499.83	0.723274
1501.39	0.248516
1502.95	0.455104
1504.51	0.585001
1506.07	0.327887
1507.63	0.437905
1509.18	0.0826988
1510.74	0.652985
1512.3	0.912338
1513.86	0.785526
1515.41	0.332485
1516.97	0.438106
1518.53	0.314394
1520.08	1.22617
1521.64	0.758583
1523.2	0.960566
1524.75	1.08466
1526.31	0.787549
1527.86	0.223372
1529.42	0.648764
1530.97	1.05388
1532.52	0.169185
1534.08	0.518886
1535.63	1.37983
1537.19	0.82309
1538.74	0.98575
1540.29	1.39377
1541.84	1.44321
1543.4	1.24775
1544.95	1.59765
1546.5	0.368786
1548.05	1.29999
1549.6	1.47945
1551.15	2.01456
1552.7	1.27729
1554.25	1.66409
1555.8	1.8281
1557.35	1.97577
1558.9	1.26782
1560.45	1.38376
1562	1.52059
1563.54	1.71498
1565.09	1.51842
1566.64	2.19905
1568.19	1.8157
1569.73	1.76769
1571.28	2.07379
1572.83	1.44612
1574.37	2.68496
1575.92	2.15042
1577.47	2.19487
1579.01	2.53861
1580.56	2.54723
1582.1	2.31421
1583.64	2.71746
1585.19	2.74832
1586.73	2.48082
1588.28	2.36296
1589.82	2.74991
1591.36	2.7434
1592.9	2.21189
1594.45	2.99072
1595.99	2.1775
1597.53	2.26396
1599.07	2.22017
1600.61	1.93348
1602.15	2.3979
1603.69	2.13045
1605.23	2.78235
1606.77	2.21122
1608.31	2.08815
1609.85	2.52565
1611.39	2.05772
1612.93	2.37607
1614.47	2.63584
1616.01	2.3319
1617.55	1.59785
1619.08	1.82166
1620.62	1.72898
1622.16	1.0391
1623.7	1.81085
1625.23	2.58245
1626.77	1.91166
1628.3	1.85682
1629.84	1.70657
1631.37	2.02222
1632.91	2.48631
1634.44	2.18489
1635.98	2.6872
1637.51	2.6682
1639.05	2.10949
1640.58	2.59493
1642.11	2.3712
1643.65	1.94129
1645.18	2.04982
1646.71	2.26848
1648.24	1.55724
1649.78	1.77593
1651.31	2.14409
1652.84	1.47491
1654.37	1.54946
1655.9	2.19942
1657.43	1.81128
1658.96	2.10768
1660.49	2.12432
1662.02	1.89841
1663.55	2.29971
1665.08	2.05304
1666.61	1.77031
1668.14	2.13496
1669.66	1.8745
1671.19	1.85588
1672.72	1.06517
1674.25	2.17231
1675.77	1.67687
1677.3	1.10704
1678.83	1.75037
1680.35	1.23327
1681.88	1.68958
1683.4	1.39194
1684.93	1.05807
1686.45	1.20187
1687.98	1.54772
1689.5	0.812899
1691.03	1.17775
1692.55	0.535799
1694.07	0.60777
1695.6	0.789131
1697.12	1.02477
1698.64	0.109202
1700.17	0.745443
1701.69	0.705359
1703.21	0.518767
1704.73	0.11319
1706.25	0.0533819
1707.77	0.338696
1709.29	-0.284791
1710.81	0.199916
1712.33	-0.0957098
1713.85	0.0260725
1715.37	-0.105721
1716.89	0.34144
1718.41	0.516582
1719.93	0.203753
1721.45	0.28859
1722.97	0.157645
1724.49	0.0281487
1726	-0.00952244
1727.52	-0.117479
1729.04	0.423709
1730.55	1.05144
1732.07	-0.124516
1733.59	0.493427
1735.1	0.106562
1736.62	0.0320263
1738.13	0.0907516
1739.65	0.171293
1741.16	0.0919485
1742.68	0.547767
1744.19	0.144126
1745.7	-0.00467682
1747.22	0.297157
1748.73	0.0132656
1750.24	0.272903
1751.76	0.395018
1753.27	0.308876
1754.78	-0.0345421
1756.29	0.00484753
1757.8	-0.034915
1759.31	0.459593
1760.83	-0.238489
1762.34	0.000301361
1763.85	0.288133
1765.36	0.236915
1766.87	-0.277103
1768.38	-0.122468
1769.89	0.159613
1771.39	-0.384863
1772.9	0.151972
1774.41	0.110828
1775.92	0.146971
1777.43	-0.273345
1778.94	0.417407
1780.44	-0.193539
1781.95	0.136262
1783.46	0.166616
1784.96	-0.0052948
1786.47	0.140306
1787.97	0.0569735
1789.48	0.274956
1790.99	-0.214038
1792.49	0.103252
1794	-0.00675106
1795.5	0.186826
1797	0.119087
1798.51	-0.0926447
1800.01	0.0764761
1801.51	0.0356216
1803.02	0.279681
1804.52	0.344105
1806.02	0.164619
1807.53	0.223711
1809.03	0.0489693
1810.53	-0.285475
1812.03	-0.0398798
1813.53	-0.229978
1815.03	-0.13245
1816.53	-0.0804958
1818.03	0.162586
1819.53	-0.203229
1821.03	0.158121
1822.53	0.164064
1824.03	0.265626
1825.53	0.129635
1827.03	-0.269476
1828.53	0.207475
1830.02	0.254546
1831.52	0.230126
1833.02	0.344897
1834.52	-0.0527954
1836.01	0.165271
1837.51	0.072052
1839.01	-0.227085
1840.5	0.0412025
1842	-0.226615
1843.49	0.199243
1844.99	-0.0169659
1846.48	-0.100348
1847.98	0.196393
1849.47	0.233855
1850.97	-0.0163927
1852.46	0.0192089
1853.95	0.0870371
1855.45	0.266891
1856.94	-0.0672512
1858.43	0.0455084
1859.93	-0.17874
1861.42	-0.142223
1862.91	0.138854
1864.4	0.298577
1865.89	-0.192
1867.38	-0.0488491
1868.87	0.355345
1870.36	-0.103516
1871.85	-0.28062
1873.34	-0.146252
1874.83	-0.0907631
1876.32	0.0334072
1877.81	0.0547009
1879.3	0.123652
1880.79	-0.297771
1882.28	-0.190424
1882.52	-0.151606
1884.02	0.0395432
1885.51	0.299257
1887.01	-0.0694103
1888.5	0.345001
1889.99	0.132866
1891.49	0.183047
1892.98	0.200469
1894.47	-0.11011
1895.97	-0.210131
1897.46	0.195204
1898.95	0.0961018
1900.44	-0.282672
1901.93	0.0671625
1903.42	0.53636
1904.91	0.134151
1906.4	0.461022
1907.89	0.544395
1909.38	0.229264
1910.87	0.557577
1912.36	0.574635
1913.85	0.0374355
1915.34	0.159481
1916.83	0.229041
1918.32	0.0898876
1919.8	0.158158
1921.29	0.451429
1922.78	0.589205
1924.27	0.312569
1925.75	-0.481876
1927.24	-0.270917
1928.73	-0.128388
1930.21	0.083396
1931.7	0.172974
1933.18	0.347268
1934.67	0.24224
1936.15	-0.0551701
1937.64	-0.492063
1939.12	-0.134148
1940.61	0.137316
1942.09	0.288726
1943.57	0.217088
1945.06	-0.491425
1946.54	0.473148
1948.02	0.0753727
1949.51	0.366005
1950.99	-0.291893
1952.47	0.202678
1953.95	0.317571
1955.43	0.0369768
1956.91	0.306754
1958.4	0.268156
1959.88	-0.16401
1961.36	0.262241
1962.84	0.397009
1964.32	0.000304222
1965.8	0.0485611
1967.27	0.369737
1968.75	0.108134
1970.23	0.187963
1971.71	0.147774
1973.19	-0.165524
1974.67	0.459811
1976.14	-0.398324
1977.62	0.243769
1979.1	2.38419e-005
1980.58	0.0457306
1982.05	0.244142
1983.53	0.0512037
1985	0.604941
1986.48	0.0551023
1987.95	0.404262
1989.43	-0.161148
1990.9	0.27351
1992.38	0.319831
1993.85	0.282863
1995.33	0.584959
1996.8	0.00894642
1998.27	0.311446
1999.75	0.562531
2001.22	-0.520489
2002.69	0.252202
2004.16	-0.021245
2005.64	0.00928211
2007.11	0.209144
2008.58	0.325879
2010.05	-0.0613995
2011.52	-0.128066
2012.99	0.0241508
2014.46	0.0916471
2015.93	-0.0942202
2017.4	0.22344
2018.87	-0.132633
2020.34	0.519068
2021.81	-0.0895834
2023.28	-0.0761776
2024.75	-0.0114717
2026.22	-0.0292101
2027.69	-0.263195
2029.15	0.0749283
2030.62	0.0121775
2032.09	0.403693
2033.56	0.326048
2035.02	0.298701
2036.49	0.38843
2037.96	-0.0433607
2039.42	0.045146
2040.89	0.133617
2042.35	0.458
2043.82	-0.0742798
2045.28	0.285984
2046.75	-0.244749
2048.21	0.437173
2049.67	0.32726
2051.14	0.131664
2052.6	0.439929
2054.07	0.526687
2055.53	0.15587
2056.99	-0.0142174
2058.45	-0.0503817
2059.92	-0.0698776
2061.38	-0.105689
2062.84	0.12884
2064.3	0.128905
2065.76	0.0124216
2067.22	0.216744
2068.68	0.118876
2070.14	0.408537
2071.6	-0.0760803
2073.06	0.230362
2074.52	0.502854
2075.98	-0.420691
2077.44	0.0698481
2078.9	-0.416831
2080.36	0.476756
2081.82	0.00570107
2083.27	0.224124
2084.73	0.104945
2086.19	-0.216925
2087.65	0.368669
2089.1	0.465814
2090.56	-0.36125
2092.02	0.172307
2093.47	0.369597
2094.93	0.415414
2096.38	0.309707
2097.84	0.270279
2099.29	-0.0376472
2100.75	0.440467
2102.2	0.249723
2103.66	-0.1401
2105.11	-0.110667
2106.56	0.153976
2108.02	-0.0806084
2109.47	0.3023
2110.92	-0.36587
2112.38	0.0313053
2113.83	0.642466
2115.28	0.0693235
2116.73	0.0945158
2118.18	0.169875
2119.63	-0.0188255
2121.09	0.193176
2122.54	0.108856
2123.99	0.0429287
2125.44	0.193357
2126.89	0.492657
2128.34	0.293325
2129.79	-0.470978
2131.23	-0.126471
2132.68	0.382238
2134.13	-0.0360813
2135.58	0.00994778
2137.03	0.305611
2138.48	0.0580168
2139.92	-0.187294
2141.37	-0.0670872
2142.82	0.467988
2144.27	0.110936
2145.71	0.184052
2147.16	0.389329
2148.6	0.411793
2150.05	0.0356083
2151.49	0.536257
2152.94	0.257012
2154.38	-0.520267
2155.83	-0.00574112
2157.27	0.177462
2158.72	-0.00294113
2160.16	-0.231527
2161.6	0.0389261
2163.05	-0.13591
2164.49	0.00602531
2165.93	0.0495157
2167.38	0.242491
2168.82	0.201735
2170.26	0.0756893
2171.7	0.196639
2173.14	-0.0839386
2174.58	0.399063
2176.03	0.31578
2177.47	-2.00272e-005
2178.91	-0.0488558
2180.35	0.402203
2181.79	0.521814
2183.23	0.0268621
2184.67	0.463506
2186.1	-0.164309
2187.54	0.122821
2188.98	0.16047
2190.42	-0.434431
2191.86	-0.0309381
2193.3	0.172007
2194.73	0.0237589
2196.17	0.389442
2197.61	0.153519
2199.05	0.331492
2200.48	0.242123
2201.92	-0.461579
2203.35	0.595078
2204.79	0.176018
2206.22	0.0072279
2207.66	-0.0448313
2209.1	0.350046
2210.53	0.197428
2211.97	0.0933943
2213.4	0.236544
2214.83	0.31325
2216.27	0.308048
2217.7	0.304218
2219.13	-0.275288
2220.57	0.185218
2222	0.381905
2223.43	0.215145
2224.86	0.211527
2226.29	0.715919
2227.72	-0.459474
2229.16	-0.35311
2230.59	0.22788
2232.02	0.594252
2233.45	-0.0382986
2234.88	0.148944
2236.31	0.353597
2237.74	-0.109468
2239.17	0.213484
2240.6	0.261312
2242.03	0.343953
2243.45	-0.159049
2244.88	0.463812
2246.31	-0.10483
2247.74	0.580498
2249.17	0.46392
2250.59	0.360971
2252.02	0.25598
2253.45	-0.0450048
2254.87	0.223556
2256.3	0.0226202
2257.73	-0.110316
2259.15	0.49028
2260.58	0.299469
2262	0.0141773
2263.43	0.477627
2264.85	-0.0330563
2266.28	0.67476
2267.7	0.308592
2269.13	0.18507
2270.55	0.386065
2271.97	0.0654812
2273.4	0.102829
2274.82	-0.13664
2276.24	0.324653
2277.67	0.183376
2279.09	0.107306
2280.51	0.16157
2281.93	0.0362873
2283.35	0.122923
2284.77	0.0954199
2286.2	0.0844831
2287.62	0.090312
2289.04	-0.0829964
2290.46	0.0871925
2291.88	0.257862
2293.3	0.134456
2294.72	0.403582
2296.13	0.279985
2297.55	-0.023921
2298.97	0.0323868
2300.39	0.138132
2301.81	-0.00164318
2303.23	0.236123
2304.64	-0.0345268
2306.06	0.285681
2307.48	-0.314368
2308.89	-0.356714
2310.31	-0.153127
2311.73	0.0172205
2313.14	0.0395298
2314.56	0.161095
2315.98	-0.0127516
2317.39	0.110738
2318.81	-0.375028
2320.22	0.243463
2321.64	0.300159
2323.05	0.371037
2324.46	0.191463
2325.88	0.388611
2327.29	0.56699
2328.7	0.711231
2330.12	0.196695
2331.53	0.342315
2332.94	0.028388
2334.35	0.192852
2335.77	0.291744
2337.18	0.0775452
2338.59	0.454123
2340	0.303092
2341.41	0.101765
2342.82	0.21186
2344.23	0.64975
2345.64	0.300734
2347.05	0.312849
2348.46	0.275877
2349.87	0.205753
2351.28	0.298209
2352.69	0.160622
2354.1	-0.222647
2355.51	0.306794
2356.91	-0.451595
2358.32	0.320463
2359.73	0.164913
2361.14	0.301956
2362.54	0.098217
2363.95	0.251065
2365.36	-0.146554
2366.76	0.264955
2368.17	-0.0824471
2369.58	-0.00855827
2370.98	-0.271684
2372.39	0.0148754
2373.79	0.221849
2375.2	0.0428123
2376.6	-0.152619
2378	0.181473
2379.41	0.175768
2380.81	0.24826
2382.22	-0.00189209
2383.62	0.00366306
2385.02	0.104885
2386.43	-0.0572786
2387.83	-0.21798
2389.23	-0.0341301
2390.63	0.0871983
2392.03	-0.156365
2393.44	0.142566
2394.84	0.37861
2396.24	0.217896
2397.64	-0.227993
2399.04	0.12151
2400.44	-0.100427
2401.84	-0.00424004
2403.24	0.361948
2404.64	0.203555
2406.04	0.0917797
2407.44	-0.227347
2408.84	0.309258
2410.23	0.163293
2411.63	0.192017
2413.03	-0.0316639
2414.43	0.252992
2415.83	0.175272
2417.22	-0.138268
2418.62	-0.165753
2420.02	0.741587
2421.41	0.508624
2422.81	0.164221
2424.21	0.278868
2425.6	-0.0500889
2427	0.0810957
2428.39	0.34024
2429.79	0.0773716
2431.18	0.0848742
2432.58	0.346576
2433.97	0.29021
2435.36	0.629549
2436.76	0.283908
2438.15	0.301722
2439.54	0.460853
2440.94	0.475804
2442.33	0.124934
2443.72	0.234135
2445.12	0.295427
2446.51	-0.0716057
2447.9	-0.216625
2449.29	0.303741
2450.68	0.032259
2452.07	-0.380808
2453.46	-0.412941
2454.85	0.109653
2456.24	0.110939
2457.64	0.0335312
2459.02	0.0982809
2460.41	0.130672
2461.8	-0.0276871
2463.19	0.224002
2464.58	0.0797863
2465.97	-0.0331097
2467.36	0.659014
2468.75	0.103965
2470.13	0.227308
2471.52	-0.0598745
2472.91	-0.0955296
2474.3	0.22998
2475.68	-0.0750084
2477.07	0.311573
2478.45	-0.00924873
2479.84	-0.172444
2481.23	-0.11567
2482.61	-0.356759
2484	0.294272
2485.38	0.051569
2486.77	0.214134
2488.15	0.140877
2489.54	0.191529
2490.92	0.101774
2492.3	0.0128775
2493.69	0.111822
2495.07	0.165679
2496.45	0.407006
2497.84	0.509651
2499.22	0.30293
2500.6	0.173401
2501.98	-0.00328445
2503.36	0.143374
2504.75	0.0572424
2506.13	0.263256
2507.51	0.114508
2508.89	-0.26437
2510.27	0.0337915
2511.65	-0.220184
2513.03	-0.120208
2514.41	0.363553
2515.79	-0.147181
2517.17	0.169701
2518.55	0.0435276
2519.93	-0.158713
2521.3	-0.00979519
2522.68	0.33655
2524.06	0.117023
2525.44	0.14076
2526.82	0.31639
2528.19	0.203148
2529.57	0.410743
2530.95	-0.307001
2532.32	-0.201698
2533.7	-0.0036335
2535.08	0.0889359
2536.45	0.394135
2537.83	0.409815
2539.2	-0.335111
2540.58	0.149151
2541.95	0.374608
2543.33	0.0540447
2544.7	0.34146
2546.08	0.14497
2547.45	0.132034
2548.82	0.180837
2550.2	0.260094
2551.57	-0.0406437
2552.94	0.492148
2554.32	0.279986
2555.69	0.203285
2557.06	0.338256
2558.43	-0.194206
2559.8	0.0925322
2561.18	-0.150678
2562.55	0.0615931
2563.92	-0.301302
2565.29	0.184953
2566.66	0.141121
2568.03	0.0367727
2569.4	0.265848
2570.77	0.419154
2572.14	0.0420017
2573.51	0.0741825
2574.88	0.0609894
2576.25	0.0781574
2577.61	0.186193
2578.98	0.157488
2580.35	0.234476
2581.72	0.0986567
2583.09	0.098834
2584.45	-0.0680571
2585.82	0.356183
2587.19	0.0529547
2588.55	0.386538
2589.92	0.265571
2591.29	-0.204076
2592.65	-0.113591
2594.02	0.309129
2595.38	0.139718
2596.75	0.150774
2598.11	0.251566
2599.48	0.230806
2600.84	-0.0920153
2602.21	-0.0816288
2603.57	0.36733
2604.93	0.122498
2606.3	0.0138445
2607.66	-0.0197439
2609.02	0.171716
2610.39	-0.12056
2611.75	0.428753
2613.11	0.298985
2614.47	0.228537
2615.83	-0.052186
2617.19	-0.25711
2618.56	0.0482769
2619.92	-0.0798788
2621.28	-0.17702
2622.64	-0.138909
2624	0.377254
2625.36	0.295765
2626.72	0.437721
2628.08	-0.240519
2629.44	-0.143864
2630.8	0.294562
2632.15	0.0334358
2633.51	-0.346175
2634.87	0.224657
2636.23	0.216151
2637.59	0.340992
2638.94	0.406463
2640.3	0.131744
2641.66	0.316048
2643.02	0.411791
2644.37	0.0794878
2645.73	0.23437
2647.09	0.241081
2648.44	0.276356
2649.8	0.0603466
2651.15	-0.597157
2652.51	0.0680132
2653.86	-0.338891
2655.22	0.355184
2656.57	0.0681973
2657.93	0.22216
2659.28	-0.295843
2660.63	0.166812
2661.99	-0.27726
2663.34	0.359244
2664.69	0.00136566
2666.05	0.576486
2667.4	-0.0157928
2668.75	-0.141287
2670.1	-0.164406
2671.45	0.147553
2672.81	-0.0632029
2674.16	0.0610628
2675.51	0.331058
2676.86	0.325869
2678.21	0.0314579
2679.56	0.419749
2680.91	-0.00264454
2682.26	0.0839319
2683.61	0.404031
2684.96	0.0872974
2686.31	0.119188
2687.66	0.441185
2689	0.094017
2690.35	-0.0230598
2691.7	0.438162
2693.05	0.0411291
2694.4	0.208745
2695.74	-0.276218
2697.09	0.239549
2698.44	0.0759373
2699.79	0.0158567
2701.13	-0.519918
2702.48	0.350924
2703.83	0.151393
2705.17	0.40177
2706.52	0.724977
2707.86	0.264536
2709.21	0.253201
2710.55	0.241366
2711.9	0.214648
2713.24	0.158662
2714.58	0.582232
2715.93	0.177189
2717.27	0.338943
2718.62	0.515006
2719.96	0.5306
2721.3	0.720244
2722.65	0.589078
2723.99	0.71926
2725.33	0.805195
2726.67	0.279304
2728.01	0.524409
2729.35	0.579971
2730.7	0.62077
2732.04	0.588766
2733.38	0.45505
2734.72	0.292496
2736.06	0.639281
2737.4	0.462623
2738.74	0.518641
2740.08	0.472528
2741.42	0.571203
2742.76	0.450933
2744.1	0.50419
2745.43	0.367736
2746.77	0.114641
2748.11	0.326008
2749.45	0.0439281
2750.79	-0.179653
2752.12	0.0321779
2753.46	-0.0602055
2754.8	0.412724
2756.14	0.523435
2757.47	0.199909
2758.81	0.122972
2760.14	0.364964
2761.48	0.694334
2762.81	0.373131
2764.15	0.168131
2765.49	0.122291
2766.82	0.278413
2768.16	-0.13081
2769.49	0.0803223
2770.82	0.0292873
2772.16	0.380922
2773.49	0.442058
2774.82	0.430284
2776.16	0.202416
2777.49	0.191275
2778.82	-0.0779991
2780.16	-0.0300684
2781.49	0.17617
2782.82	0.109575
2784.15	0.286798
2785.48	0.0481129
2786.82	0.0391493
2788.15	0.00220394
2789.48	-0.162475
2790.81	-0.240071
2792.14	0.226689
2793.47	0.350732
2794.8	0.160359
2796.13	0.0553761
2797.46	0.321127
2798.79	0.628784
2800.12	0.578812
2801.44	-0.384441
2802.77	-0.2634
2804.1	-0.271062
2805.43	0.304671
2806.76	0.110314
2808.08	-0.0845985
2809.41	0.018693
2810.74	0.0366478
2812.07	0.0127773
2813.39	0.061307
2814.72	-0.115182
2816.05	0.121332
2817.37	0.316717
2818.7	-0.224158
2820.02	0.11375
2821.35	0.493592
2822.67	0.1781
2824	0.0602608
2825.32	0.168664
2826.65	0.135465
2827.97	0.3578
2829.3	0.226898
2830.62	0.393911
2831.94	0.150689
2833.26	0.232985
2834.59	0.541331
2835.91	0.650846
2837.23	0.632283
2838.56	0.910215
2839.88	1.45643
2841.2	1.32388
2842.52	1.53121
2843.84	1.79591
2845.16	1.96265
2846.48	2.2292
2847.8	2.5811
2849.12	2.46665
2850.45	2.70515
2851.77	2.47653
2853.08	2.45921
2854.4	3.07725
2855.72	2.6776
2857.04	2.1933
2858.36	3.12166
2859.68	3.45661
2861	3.50881
2862.32	3.22173
2863.63	3.20242
2864.95	4.17045
2866.27	4.36212
2867.59	3.94765
2868.9	4.67612
2870.22	4.41815
2871.54	4.87938
2872.85	5.18505
2874.17	5.0245
2875.48	4.98923
2876.8	5.74075
2878.11	5.63192
2879.43	6.21189
2880.74	6.103
2882.06	6.20629
2883.37	6.35331
2884.69	6.30526
2886	6.39859
2887.31	6.37974
2888.63	6.711
2889.94	6.32544
2891.25	6.9624
2892.57	7.00918
2893.88	6.83153
2895.19	7.35477
2896.5	7.17909
2897.82	7.46708
2899.13	7.21102
2900.44	7.92163
2901.75	7.34599
2903.06	7.58207
2904.37	8.01421
2905.68	8.0272
2906.99	8.29292
2908.3	8.08443
2909.61	8.40897
2910.92	8.60867
2912.23	8.86443
2913.54	8.83906
2914.85	9.48341
2916.16	9.04689
2917.46	9.46166
2918.77	8.95115
2920.08	9.90926
2921.39	9.72142
2922.7	10.6401
2924	9.68795
2925.31	10.8904
2926.62	9.99723
2927.92	10.4741
2929.23	10.4051
2930.54	10.3632
2931.84	10.3485
2933.15	10.571
2934.45	11.1428
2935.76	10.4291
2937.06	10.4704
2938.37	10.3304
2939.67	9.6878
2940.98	9.94041
2942.28	9.18834
2943.58	9.05303
2944.89	9.14356
2946.19	8.41094
2947.49	7.77668
2948.8	8.49928
2950.1	7.82051
2951.4	7.44682
2952.7	7.28027
2954.01	7.26566
2955.31	7.2785
2956.61	7.53065
2957.91	6.59621
2959.21	6.89764
2960.51	7.03545
2961.81	6.7
2963.11	6.98259
2964.41	6.40837
2965.71	6.95515
2967.01	5.98213
2968.31	5.99053
2969.61	6.25094
2970.91	6.24409
2972.21	6.37842
2973.51	5.76755
2974.81	5.5646
2976.1	5.31841
2977.4	5.30967
2978.7	5.2984
2980	5.03117
2981.29	4.62144
2982.59	4.33783
2983.89	4.08311
2985.18	4.2659
2986.48	4.01525
2987.78	3.66849
2989.07	3.59022
2990.37	3.8778
2991.66	3.58852
2992.96	3.25561
2994.25	2.79457
2995.55	2.34627
2996.84	2.06584
2998.14	2.69757
2999.43	1.67396
3000.73	2.2364
3002.02	1.77608
3003.31	2.05936
3004.61	1.34809
3005.9	1.79929
3007.19	1.08753
3008.48	1.32677
3009.77	1.22902
3011.07	1.00469
3012.36	0.905859
3013.65	0.890942
3014.94	0.486352
3016.23	0.765907
3017.52	0.544986
3018.81	0.422477
3020.1	0.411538
3021.4	0.400126
3022.68	0.429378
3023.97	0.276989
3025.26	0.165564
3026.55	0.137252
3027.84	-0.346934
3029.13	-0.220487
3030.42	0.114973
3031.71	-0.210844
3033	-0.162244
3034.28	0.107646
3035.57	0.19741
3036.86	0.271729
3038.15	0.0682049
3039.43	0.0829401
3040.72	0.205687
3042.01	0.107415
3043.29	0.420621
3044.58	0.159318
3045.87	-0.181156
3047.15	0.301509
3048.44	0.308818
3049.72	0.45548
3051.01	0.140307
3052.29	0.0992947
3053.58	0.22215
3054.86	0.357903
3056.15	0.110506
3057.43	0.870761
3058.71	0.484853
3060	0.480403
3061.28	0.612624
3062.56	0.746101
3063.84	0.351165
3065.13	0.67908
3066.41	0.383556
3067.69	0.334147
3068.97	0.0813875
3070.26	0.317997
3071.54	0.499241
3072.82	0.121453
3074.1	0.055069
3075.38	0.0556364
3076.66	0.286798
3077.94	0.219757
3079.22	-0.089941
3080.5	-0.0447598
3081.78	0.165279
3083.06	-0.0706196
3084.34	0.128631
3085.62	0.273894
3086.9	0.133759
3088.18	0.617203
3089.45	0.380507
3090.73	0.279123
3092.01	0.069212
3093.29	0.0903139
3094.56	-0.0236664
3095.84	-0.0421906
3097.12	-0.209545
3098.4	-0.0379152
3099.67	0.201388
3100.95	-0.101222
3102.22	0.24661
3103.5	0.364611
3104.78	0.144995
3106.05	0.589682
3107.33	0.29135
3108.6	0.143361
3109.88	0.335236
3111.15	0.393215
3112.43	0.533611
3113.7	0.674865
3114.97	0.30125
3116.25	0.306643
3117.52	0.745173
3118.79	0.409441
3120.07	0.14035
3121.34	0.412741
3122.61	0.56239
3123.88	0.508714
3125.16	0.766918
3126.43	0.673796
3127.7	0.852246
3128.97	0.896178
3130.24	0.805565
3131.51	0.86404
3132.79	1.05763
3134.06	0.683517
3135.33	0.849266
3136.6	0.663592
3137.87	0.868711
3139.14	1.01936
3140.41	1.02176
3141.67	0.930332
3142.94	0.75902
3144.21	0.88423
3145.48	1.29197
3146.75	1.24441
3148.02	1.09087
3149.29	1.43392
