200.407	-0.02561
202.221	-0.0223722
204.035	-0.0181532
205.849	0.157363
207.665	0.43045
209.478	0.0955477
211.291	0.367413
213.104	0.322437
214.916	0.519263
216.73	0.400348
218.541	0.596673
220.352	0.139968
222.163	0.144423
223.973	0.391626
225.785	0.397656
227.595	-0.296614
229.404	-0.0728779
231.213	-0.404774
233.022	0.0113649
234.83	-0.175259
236.638	0.555488
238.448	0.516734
240.255	0.359941
242.062	-0.325128
243.868	0.172669
245.675	1.03311
247.48	0.347811
249.286	0.311863
251.091	-0.0647993
252.896	-0.0333033
254.702	0.744524
256.506	0.412171
258.31	0.153307
260.113	-0.0555649
261.916	-0.262504
263.719	-0.0582848
265.521	0.0507145
267.323	0.353038
269.125	0.293777
270.926	0.691969
272.727	0.269517
274.527	-0.154104
276.328	0.144214
278.127	0.320333
279.927	0.0610228
281.726	-0.705177
283.525	0.139574
285.323	0.14068
287.121	-0.290882
288.919	0.477359
290.716	0.454384
292.513	0.00193214
294.31	0.101822
296.104	-0.299026
297.9	0.185842
299.696	0.00198746
301.491	-0.42064
303.286	0.159189
305.081	0.0215569
306.875	-0.116709
308.669	-0.0881042
310.463	0.203119
312.256	0.42382
314.047	-0.0445099
315.839	0.060523
317.631	0.000617981
319.423	0.0613098
321.215	-0.663291
323.006	0.901467
324.794	-0.299371
326.585	0.647421
328.375	-0.124912
330.165	0.153168
331.954	0.550144
333.741	0.275969
335.53	0.550146
337.318	1.22902
339.106	0.302755
340.894	1.09747
342.679	0.528216
344.466	0.341758
346.253	0.0126667
348.039	0.0665493
349.823	0.240308
351.608	0.485722
353.393	0.0624447
355.176	0.0678864
356.961	0.286769
358.745	0.170607
360.529	0.10118
362.31	0.245203
364.093	0.531005
365.876	0.102969
367.657	0.0310478
369.439	0.266763
371.221	0.714398
373	0.426947
374.781	0.068924
376.56	0.608833
378.34	0.582169
380.12	-0.550722
381.898	0.155452
383.677	0.13263
385.456	0.275663
387.233	0.654758
389.011	1.22268
390.787	0.664063
392.565	0.740566
394.34	0.676832
396.117	0.214303
397.894	0.0102348
399.668	0.299264
401.444	0.517508
403.217	0.758673
404.993	0.458958
406.766	0.041213
408.54	-0.142135
410.312	-0.0440111
412.086	-0.0162725
413.858	0.223054
415.631	-0.287794
417.402	0.328415
419.174	0.241374
420.944	0.0372477
422.716	-0.167104
424.486	-0.0199518
426.257	0.431613
428.025	0.131175
429.794	0.41717
431.564	-0.329595
433.332	0.49649
435.101	0.337201
436.868	-0.00982952
438.637	-0.00539494
440.403	-0.143038
442.169	0.585487
443.937	0.396968
445.703	-0.261599
447.468	0.226656
449.234	0.2693
450.999	0.148427
452.765	0.0280838
454.528	-0.0218353
456.292	0.184714
458.057	-0.261259
459.819	0.014926
461.582	-0.0342302
463.344	0.382939
465.107	0.0817871
466.868	0.526964
468.629	0.0452576
470.392	-0.039669
472.152	0.0853729
473.912	0.279774
475.672	0.239805
477.433	0.873323
479.192	0.480085
480.951	0.691503
482.709	0.600239
484.469	0.766331
486.226	0.282112
487.984	0.918396
489.74	1.04444
491.499	0.0513382
493.255	0.762764
495.011	0.704003
496.767	0.434402
498.522	0.468634
500.277	0.0569487
502.033	0.371559
503.788	0.357
505.541	0.0593109
507.295	-0.122407
509.048	0.353008
510.801	0.0507126
512.553	0.92343
514.308	0.218162
516.06	0.123446
517.811	0.427446
519.562	0.330632
521.313	0.303674
523.063	0.511126
524.814	0.553851
526.563	0.174257
528.313	0.00611687
530.062	-0.0447607
531.811	0.88778
533.559	0.460831
535.308	0.243855
537.055	0.189502
538.803	-0.00614452
540.55	0.427187
542.297	0.369584
544.043	-0.153555
545.789	0.254006
547.535	0.521509
549.281	0.0931664
551.026	-0.0792685
552.771	0.465924
554.515	-0.00655746
556.259	-0.500885
558.003	-0.255945
559.747	0.472811
561.49	-0.27244
563.233	0.157151
564.975	-0.194844
566.717	0.556823
568.459	0.527812
570.2	-0.027936
571.942	0.0374069
573.68	0.0813208
575.421	-0.0107489
577.161	-0.12423
578.901	0.452127
580.64	-0.30232
582.379	-0.138243
584.118	-0.0664253
585.855	0.303509
587.593	-0.270677
589.331	-0.247993
591.068	0.510092
592.805	-0.13579
594.54	0.48359
596.277	-0.415467
598.013	0.0658741
599.749	-0.327346
601.484	-0.123143
603.217	0.493816
604.952	0.0744619
606.687	-0.138951
608.421	-0.0543623
610.153	-0.038868
611.886	-0.252363
613.619	-0.189807
615.35	0.790088
617.083	-0.0404959
618.815	0.3887
620.547	0.198453
622.276	0.0758867
624.008	0.318409
625.738	0.0808287
627.467	0.346782
629.197	0.454568
630.927	0.222309
632.655	0.197405
634.384	-0.28293
636.113	0.217907
637.839	0.648773
639.568	0.529195
641.293	-0.00370502
643.021	0.0999489
644.748	0.224971
646.473	0.327256
648.2	0.112855
649.924	-0.0757017
651.65	0.216455
653.376	-0.214998
655.099	-0.0297375
656.824	0.294589
658.546	0.324207
660.271	0.422001
661.993	-0.12094
663.716	0.178771
665.438	0.0192976
667.161	0.31529
668.881	-0.235597
670.604	0.311894
672.324	-0.374271
674.045	-0.0514212
675.765	0.480165
677.486	0.4863
679.204	0.0332804
680.925	0.383117
682.643	0.432786
684.361	0.342384
686.08	0.71054
687.797	0.685791
689.516	0.429608
691.232	0.633393
692.95	0.468013
694.666	0.348011
696.382	0.802813
698.099	0.151222
699.813	0.580459
701.528	0.36421
703.244	0.60697
704.958	1.14729
706.673	0.492872
708.387	1.32965
710.099	0.492013
711.814	0.708522
713.526	0.901482
715.238	0.933919
716.949	0.600924
718.663	0.565141
720.374	0.529593
722.084	1.54178
723.796	0.367997
725.506	1.31033
727.216	0.819793
728.925	1.26012
730.636	1.0417
732.345	0.823327
734.053	0.582561
735.761	1.04299
737.471	0.757677
739.178	0.96987
740.885	0.799414
742.592	1.41878
744.298	0.575336
746.006	1.30931
747.712	1.14427
749.417	1.81286
751.122	1.47051
752.827	1.82675
754.532	1.23962
756.236	1.91392
757.942	1.46459
759.645	1.35417
761.348	0.545831
763.051	1.15826
764.753	1.41011
766.456	2.36164
768.158	1.59431
769.859	2.15829
771.56	1.61225
773.261	2.19535
774.964	1.44379
776.664	1.75549
778.364	1.79714
780.064	1.74987
781.763	1.72635
783.462	1.36355
785.16	1.90495
786.859	2.12724
788.557	1.73519
790.255	1.38539
791.952	1.84703
793.649	1.92232
795.346	2.47085
797.042	1.71206
798.738	1.38404
800.434	0.968166
802.127	1.454
803.823	1.15297
805.517	1.52647
807.212	1.33712
808.906	1.5286
810.6	1.31473
812.293	1.63843
813.987	1.15443
815.68	1.656
817.372	1.70931
819.064	2.18722
820.754	1.48097
822.446	1.06628
824.137	2.23602
825.828	1.80123
827.519	2.14857
829.209	1.05095
830.897	1.78255
832.587	1.89348
834.276	1.69458
835.966	1.29577
837.654	1.56586
839.341	0.540075
841.029	1.54465
842.717	1.27499
844.404	1.22816
846.091	1.42777
847.776	1.40557
849.463	1.45281
851.149	1.99516
852.833	1.15082
854.519	1.18075
856.204	1.52508
857.889	1.03716
859.572	1.06434
861.256	1.38256
862.94	0.978665
864.622	1.13659
866.305	1.04574
867.988	0.773819
869.669	0.501349
871.351	0.36382
873.033	0.316304
874.713	0.900485
876.395	1.10119
878.074	0.715137
879.755	0.802917
881.435	1.27415
883.114	0.954614
884.794	1.10811
886.471	1.37307
888.15	0.959491
889.829	0.928092
891.506	0.264282
893.184	0.681139
894.861	0.803729
896.538	0.452984
898.214	0.82064
899.891	0.850121
901.566	0.565103
903.242	0.772526
904.916	1.33682
906.592	0.98473
908.266	1.32522
909.941	0.930866
911.614	0.960909
913.288	0.835967
914.961	1.26673
916.635	0.809384
918.306	0.552308
919.979	0.827192
921.651	0.526917
923.321	1.17866
924.994	0.240515
926.664	0.607782
928.336	1.04253
930.005	1.08104
931.674	0.590694
933.345	1.15965
935.014	0.758098
936.682	0.820181
938.352	0.243473
940.019	0.925018
941.687	0.99022
943.356	1.3651
945.022	0.680628
946.689	0.877836
948.357	1.13955
950.022	0.450354
951.688	0.6649
953.355	0.570534
955.02	0.587865
956.684	0.585669
958.348	0.740891
960.014	0.523702
961.678	0.948274
963.341	0.73238
965.004	0.470424
966.669	0.75889
968.331	0.447396
969.993	1.10736
971.655	0.660252
973.316	0.855023
974.979	0.454032
976.64	0.474904
978.3	0.165368
979.961	0.298864
981.62	0.432112
983.28	1.00695
984.941	0.805164
986.6	0.756352
988.259	0.904942
989.917	0.521445
991.575	1.26483
993.233	1.10158
994.89	0.0335484
996.547	0.0699396
998.204	0.657496
999.86	1.156
1001.52	1.10294
1003.17	1.11554
1004.83	0.731948
1006.49	0.810254
1008.14	0.0980034
1009.79	0.111205
1011.45	0.629172
1013.1	-0.409159
1014.76	0.919696
1016.41	0.364749
1018.06	-0.254782
1019.72	0.395489
1021.37	0.477765
1023.02	0.954482
1024.67	1.43196
1026.32	0.620651
1027.97	0.989442
1029.62	0.505539
1031.27	1.2219
1032.92	0.931936
1034.57	1.01152
1036.22	0.435544
1037.87	0.796387
1039.52	0.394668
1041.17	0.95122
1042.82	0.943094
1044.47	0.35006
1046.11	1.14942
1047.76	0.886172
1049.41	0.385697
1051.06	0.733446
1052.7	-0.243091
1054.35	-0.111489
1055.99	0.476609
1057.64	0.151661
1059.28	0.82629
1060.93	0.239295
1062.57	0.434319
1064.22	0.432772
1065.86	0.560671
1067.5	0.600529
1069.15	0.53078
1070.79	0.503881
1072.43	0.0644188
1074.08	0.55876
1075.72	0.164381
1077.36	0.400345
1079	0.377209
1080.64	0.549976
1082.28	0.375813
1083.92	0.873006
1085.56	0.804855
1087.2	0.193077
1088.84	0.641033
1090.48	0.372627
1092.12	0.622332
1093.76	0.568692
1095.39	0.860506
1097.03	0.419666
1098.67	0.368539
1100.31	0.964954
1101.94	0.61587
1103.58	0.29027
1105.22	0.00908375
1106.85	0.438266
1108.49	0.480009
1110.12	0.391713
1111.76	0.21601
1113.39	0.554491
1115.03	0.16144
1116.66	0.30465
1118.29	0.361976
1119.93	0.355589
1121.56	0.521441
1123.19	0.345718
1124.82	0.834326
1126.46	0.917095
1128.09	0.97922
1129.72	0.186792
1131.35	0.186133
1132.98	0.0788774
1134.61	0.249413
1136.24	-0.050869
1137.87	0.374504
1139.5	0.13632
1141.13	0.0681725
1142.76	0.191636
1144.39	0.443048
1146.01	0.375084
1147.64	0.116286
1149.27	0.135439
1150.9	-0.292249
1152.53	-0.102158
1154.15	-0.146653
1155.78	0.446986
1157.4	0.146524
1159.03	-0.600092
1160.65	0.142944
1162.28	0.312685
1163.9	0.589677
1165.53	-0.110868
1167.15	0.442822
1168.78	0.187577
1170.4	0.802267
1172.02	0.309852
1173.65	0.13472
1175.27	0.382944
1176.89	0.524258
1178.51	0.135954
1180.14	0.574386
1181.76	0.209253
1183.38	0.331468
1185	0.347959
1186.62	0.426895
1188.24	-0.149903
1189.86	0.410735
1191.48	0.147227
1193.1	-0.117076
1194.71	-0.31846
1196.33	-0.0580473
1197.95	0.684079
1199.57	0.359444
1201.19	0.601885
1202.8	0.115755
1204.42	0.467438
1206.04	0.257622
1207.65	0.0700378
1209.27	0.717186
1210.88	0.591713
1212.5	0.548058
1214.12	0.960712
1215.73	1.03739
1217.35	0.571213
1218.96	0.437404
1220.57	1.11333
1222.19	0.378317
1223.8	0.681877
1225.41	0.841491
1227.03	0.671321
1228.64	1.16457
1230.25	1.30723
1231.86	0.830904
1233.47	0.955339
1235.08	0.770979
1236.69	1.10453
1238.31	0.943057
1239.92	0.658132
1241.52	0.766245
1243.13	1.47407
1244.74	0.650195
1246.35	1.10813
1247.96	0.964968
1249.57	1.23486
1251.18	1.56642
1252.78	1.0707
1254.39	1.17559
1256	1.01266
1257.6	1.51293
1259.21	1.10413
1260.82	1.50327
1262.42	1.09562
1264.03	1.16416
1265.63	0.755717
1267.24	0.74017
1268.84	0.599316
1270.45	1.05872
1272.05	1.0195
1273.65	0.93779
1275.26	0.48202
1276.86	0.605799
1278.46	0.977287
1280.06	0.1055
1281.67	0.331107
1283.27	0.8876
1284.87	0.947833
1286.47	0.864173
1288.07	1.56697
1289.67	0.637888
1291.27	1.38328
1292.87	1.24001
1294.47	1.19934
1296.07	0.620472
1297.67	1.17587
1299.27	1.06885
1300.87	1.04292
1302.47	1.53075
1304.06	0.637888
1305.66	1.24686
1307.26	1.79245
1308.85	1.84418
1310.45	1.77281
1312.05	1.45632
1313.64	1.46844
1315.24	1.56329
1316.83	1.90396
1318.43	1.53065
1320.02	2.01404
1321.62	1.92536
1323.21	1.63173
1324.8	1.96704
1326.4	1.52857
1327.99	1.3542
1329.59	1.70722
1331.18	0.827306
1332.77	1.54759
1334.36	1.92574
1335.95	1.11459
1337.54	2.2411
1339.14	1.10813
1340.73	1.26413
1342.32	1.49821
1343.91	1.89058
1345.5	1.25692
1347.09	1.66752
1348.67	0.877102
1350.26	1.0312
1351.85	1.0876
1353.44	0.86611
1355.03	1.34564
1356.62	1.12593
1358.2	1.48526
1359.79	0.645242
1361.38	1.28189
1362.96	1.3784
1364.55	1.01589
1366.14	0.972816
1367.72	1.74704
1369.31	1.02886
1370.89	1.32752
1372.48	1.3091
1374.06	1.53061
1375.64	1.1161
1377.23	1.00016
1378.81	1.00313
1380.39	1.64181
1381.98	1.46331
1383.56	0.965373
1385.14	1.28177
1386.72	1.2795
1388.3	1.19794
1389.89	1.3156
1391.47	0.799109
1393.05	1.15658
1394.63	1.33578
1396.21	0.999179
1397.79	0.899936
1399.37	1.8896
1400.95	1.25329
1402.52	1.36921
1404.1	1.32668
1405.68	1.14628
1407.26	0.611151
1408.84	0.768796
1410.42	1.22314
1411.99	0.689866
1413.57	0.90648
1415.15	0.86552
1416.72	0.665982
1418.3	1.1758
1419.87	1.07469
1421.45	0.758121
1423.02	0.207082
1424.6	1.01587
1426.17	1.17631
1427.75	1.29796
1429.32	1.00602
1430.89	1.16589
1432.47	1.24585
1434.04	1.50184
1435.61	1.93418
1437.18	1.83561
1438.76	1.69853
1440.33	1.34636
1441.9	1.70272
1443.47	1.39161
1445.04	1.59189
1446.61	2.0479
1448.18	1.87511
1449.75	2.19406
1451.32	1.98271
1452.89	1.65384
1454.46	1.97438
1456.03	2.27537
1457.6	1.43441
1459.16	2.38292
1460.73	0.948379
1462.3	1.75532
1463.87	1.59636
1465.43	0.827106
1467	1.74767
1468.56	1.2736
1470.13	1.11488
1471.7	0.859303
1473.26	1.54634
1474.83	1.68485
1476.39	1.0787
1477.96	1.11977
1479.52	1.06275
1481.08	1.22124
1482.65	1.26201
1484.21	1.02832
1485.77	0.833546
1487.34	0.677282
1488.9	0.813516
1490.46	0.849977
1492.02	0.473639
1493.58	0.916214
1495.15	0.439056
1496.71	0.936216
1498.27	0.731294
1499.83	0.605133
1501.39	0.635619
1502.95	0.822337
1504.51	0.253953
1506.07	0.53863
1507.63	0.222666
1509.18	0.370033
1510.74	0.458055
1512.3	0.525737
1513.86	0.997016
1515.41	1.04435
1516.97	0.0170488
1518.53	-0.259227
1520.08	0.193572
1521.64	1.02831
1523.2	0.733181
1524.75	0.266129
1526.31	-0.0482168
1527.86	0.380029
1529.42	0.141019
1530.97	0.681116
1532.52	0.935775
1534.08	0.168021
1535.63	0.34888
1537.19	0.605807
1538.74	0.768515
1540.29	0.742718
1541.84	0.566356
1543.4	1.10542
1544.95	0.665524
1546.5	0.376545
1548.05	0.688423
1549.6	1.09333
1551.15	0.95455
1552.7	1.05974
1554.25	0.773177
1555.8	1.17945
1557.35	0.896349
1558.9	1.6417
1560.45	1.00816
1562	1.45837
1563.54	1.76054
1565.09	1.67157
1566.64	0.948201
1568.19	0.840325
1569.73	1.10536
1571.28	1.14603
1572.83	1.5971
1574.37	1.11465
1575.92	1.58425
1577.47	1.97941
1579.01	1.14285
1580.56	1.4644
1582.1	1.86157
1583.64	1.6807
1585.19	1.65001
1586.73	1.37678
1588.28	1.2157
1589.82	1.54078
1591.36	1.36025
1592.9	1.19784
1594.45	1.16614
1595.99	2.03376
1597.53	1.27179
1599.07	1.01616
1600.61	1.19245
1602.15	1.78228
1603.69	1.60282
1605.23	1.17829
1606.77	1.50379
1608.31	1.31999
1609.85	1.34059
1611.39	1.49035
1612.93	0.961886
1614.47	1.40864
1616.01	1.72306
1617.55	1.30649
1619.08	0.685455
1620.62	1.33989
1622.16	1.43362
1623.7	0.966545
1625.23	0.836592
1626.77	0.930545
1628.3	1.26642
1629.84	0.908709
1631.37	0.793292
1632.91	0.864372
1634.44	1.19697
1635.98	1.23147
1637.51	1.67716
1639.05	1.39607
1640.58	1.61844
1642.11	1.84003
1643.65	1.74372
1645.18	1.5346
1646.71	0.990091
1648.24	1.52376
1649.78	1.4814
1651.31	1.75553
1652.84	1.64115
1654.37	1.41679
1655.9	1.4342
1657.43	2.11859
1658.96	1.20884
1660.49	1.39084
1662.02	1.25666
1663.55	1.17698
1665.08	1.89102
1666.61	1.3862
1668.14	1.45491
1669.66	1.94899
1671.19	1.17285
1672.72	1.11672
1674.25	1.26368
1675.77	1.61286
1677.3	1.62975
1678.83	1.11201
1680.35	0.704054
1681.88	0.828677
1683.4	0.750806
1684.93	1.1502
1686.45	0.760841
1687.98	1.0872
1689.5	1.17543
1691.03	1.08074
1692.55	0.71171
1694.07	0.928312
1695.6	1.03483
1697.12	0.665895
1698.64	0.698789
1700.17	1.04147
1701.69	1.05488
1703.21	0.411607
1704.73	1.02526
1706.25	0.818669
1707.77	0.648478
1709.29	0.442159
1710.81	0.599227
1712.33	0.883114
1713.85	0.496337
1715.37	0.653338
1716.89	0.321643
1718.41	0.550625
1719.93	0.399923
1721.45	0.393973
1722.97	0.00994778
1724.49	0.00574684
1726	-0.0152493
1727.52	0.39702
1729.04	0.0541763
1730.55	0.342915
1732.07	-0.0806837
1733.59	0.480233
1735.1	0.422155
1736.62	0.21035
1738.13	0.862236
1739.65	0.134689
1741.16	0.543015
1742.68	0.259618
1744.19	-0.163583
1745.7	0.378062
1747.22	0.243204
1748.73	-0.10088
1750.24	0.0579605
1751.76	0.392276
1753.27	-0.0353765
1754.78	0.493629
1756.29	0.0440264
1757.8	0.616785
1759.31	0.527387
1760.83	-0.127094
1762.34	0.0765524
1763.85	0.115493
1765.36	0.288993
1766.87	0.762598
1768.38	0.218068
1769.89	0.262555
1771.39	0.298067
1772.9	0.0121393
1774.41	-0.0157757
1775.92	0.37338
1777.43	0.411308
1778.94	0.371861
1780.44	0.617496
1781.95	-0.0571451
1783.46	0.413507
1784.96	0.619634
1786.47	0.401215
1787.97	0.248789
1789.48	0.183063
1790.99	0.13021
1792.49	0.0821419
1794	-0.122839
1795.5	0.199916
1797	0.222732
1798.51	0.195146
1800.01	0.364702
1801.51	0.312924
1803.02	0.240366
1804.52	-0.045783
1806.02	-0.128701
1807.53	0.0632048
1809.03	0.246895
1810.53	0.573701
1812.03	0.284192
1813.53	0.224196
1815.03	0.32222
1816.53	-0.0814247
1818.03	0.0787134
1819.53	0.0681372
1821.03	0.116065
1822.53	-0.245095
1824.03	0.176172
1825.53	0.0911684
1827.03	-0.117121
1828.53	0.105558
1830.02	0.31637
1831.52	0.401334
1833.02	0.0479298
1834.52	0.672482
1836.01	0.124254
1837.51	0.296869
1839.01	0.258942
1840.5	0.330692
1842	-0.106363
1843.49	0.315015
1844.99	0.462214
1846.48	0.159842
1847.98	0.167931
1849.47	0.407525
1850.97	0.323954
1852.46	0.00598621
1853.95	0.291458
1855.45	0.144433
1856.94	0.0937185
1858.43	0.385482
1859.93	-0.281336
1861.42	-0.127467
1862.91	0.485359
1864.4	0.338184
1865.89	0.112963
1867.38	0.082222
1868.87	0.0715685
1870.36	0.0448723
1871.85	0.0153303
1873.34	0.139064
1874.83	0.13614
1876.32	0.331888
1877.81	-0.117602
1879.3	-0.0117626
1880.79	-0.00390244
1882.28	-0.0393019
1882.52	-0.0446558
1884.02	0.0758057
1885.51	-0.0833635
1887.01	0.261906
1888.5	0.0318842
1889.99	0.324235
1891.49	0.0259628
1892.98	0.563939
1894.47	0.425512
1895.97	0.340748
1897.46	0.395895
1898.95	0.294408
1900.44	0.313702
1901.93	0.453213
1903.42	0.277914
1904.91	0.240423
1906.4	0.115344
1907.89	0.0598259
1909.38	0.300004
1910.87	0.436779
1912.36	0.0365982
1913.85	-0.137409
1915.34	-0.120522
1916.83	0.58953
1918.32	0.0161333
1919.8	0.222354
1921.29	-0.281799
1922.78	0.236359
1924.27	-0.283644
1925.75	0.115008
1927.24	0.168414
1928.73	0.0146694
1930.21	0.241823
1931.7	0.173861
1933.18	0.156487
1934.67	0.43172
1936.15	0.0649624
1937.64	0.0778904
1939.12	0.418655
1940.61	-0.121371
1942.09	0.375484
1943.57	0.407115
1945.06	-0.0777588
1946.54	-0.130999
1948.02	0.0223866
1949.51	0.226656
1950.99	0.0682192
1952.47	0.25324
1953.95	-0.301925
1955.43	-0.444002
1956.91	-0.0703764
1958.4	-0.383079
1959.88	0.111455
1961.36	0.0573483
1962.84	0.449116
1964.32	0.446328
1965.8	-0.0878096
1967.27	0.0625811
1968.75	0.00693417
1970.23	-0.373953
1971.71	0.0140781
1973.19	-0.0764074
1974.67	-0.0131712
1976.14	0.220589
1977.62	0.0283756
1979.1	-0.0953999
1980.58	-0.133986
1982.05	-0.0366879
1983.53	0.213072
1985	-0.301651
1986.48	0.201799
1987.95	0.433292
1989.43	0.173652
1990.9	0.0673208
1992.38	0.384831
1993.85	0.432503
1995.33	-0.144334
1996.8	0.107424
1998.27	0.139441
1999.75	0.289205
2001.22	0.202027
2002.69	0.266256
2004.16	-0.0574369
2005.64	-0.02666
2007.11	0.375334
2008.58	-0.232345
2010.05	0.25535
2011.52	0.204732
2012.99	0.120517
2014.46	0.153731
2015.93	0.253506
2017.4	0.335539
2018.87	0.265421
2020.34	-0.107594
2021.81	0.157797
2023.28	0.389653
2024.75	0.0516033
2026.22	-0.0335093
2027.69	0.201404
2029.15	-0.0822439
2030.62	0.0882196
2032.09	0.310018
2033.56	0.196683
2035.02	0.100049
2036.49	0.0533915
2037.96	0.174254
2039.42	0.244377
2040.89	0.549826
2042.35	0.149579
2043.82	0.304867
2045.28	0.208725
2046.75	0.180558
2048.21	-0.049489
2049.67	0.191828
2051.14	0.398706
2052.6	0.115153
2054.07	0.13341
2055.53	0.0994453
2056.99	0.0642195
2058.45	0.11253
2059.92	0.228025
2061.38	0.259638
2062.84	0.0226793
2064.3	-0.179583
2065.76	-0.111633
2067.22	0.108548
2068.68	-0.0746355
2070.14	0.213758
2071.6	0.266592
2073.06	-0.16898
2074.52	-0.0828686
2075.98	0.0197964
2077.44	0.341061
2078.9	-0.06217
2080.36	0.275126
2081.82	0.308777
2083.27	0.106129
2084.73	0.0711765
2086.19	0.254251
2087.65	-0.0173807
2089.1	0.0973949
2090.56	0.22866
2092.02	0.275782
2093.47	0.289212
2094.93	0.386238
2096.38	0.147487
2097.84	-0.125071
2099.29	0.405525
2100.75	0.132318
2102.2	-0.223811
2103.66	0.156039
2105.11	0.119379
2106.56	0.267542
2108.02	-0.133795
2109.47	-0.0343828
2110.92	0.197858
2112.38	0.045476
2113.83	0.524503
2115.28	0.152724
2116.73	0.129857
2118.18	0.0242691
2119.63	-0.0965519
2121.09	-0.232108
2122.54	0.0819263
2123.99	0.11524
2125.44	-0.0995779
2126.89	0.0833263
2128.34	0.447617
2129.79	0.0978909
2131.23	0.360092
2132.68	-0.0904827
2134.13	0.170776
2135.58	0.0191059
2137.03	0.133322
2138.48	0.133457
2139.92	0.0361309
2141.37	0.0394125
2142.82	0.043746
2144.27	-0.100228
2145.71	-0.0124979
2147.16	-0.00773621
2148.6	0.12898
2150.05	-6.10352e-005
2151.49	0.184797
2152.94	0.0539904
2154.38	-0.127238
2155.83	-0.126596
2157.27	0.17228
2158.72	0.223281
2160.16	-0.188402
2161.6	0.62751
2163.05	-0.0629616
2164.49	-0.155655
2165.93	0.134093
2167.38	0.174972
2168.82	0.264857
2170.26	0.353271
2171.7	0.389954
2173.14	-0.0741758
2174.58	-0.00715351
2176.03	0.142497
2177.47	0.0761137
2178.91	0.44267
2180.35	0.294683
2181.79	0.330364
2183.23	0.0173569
2184.67	0.220107
2186.1	0.00709629
2187.54	-0.222607
2188.98	-0.402437
2190.42	0.000243187
2191.86	0.103173
2193.3	0.00569057
2194.73	0.0569029
2196.17	0.256336
2197.61	0.10447
2199.05	0.00114727
2200.48	-0.13617
2201.92	0.15824
2203.35	0.00486183
2204.79	0.151082
2206.22	-0.165984
2207.66	0.163779
2209.1	0.0460033
2210.53	0.258677
2211.97	0.271718
2213.4	0.0196028
2214.83	0.329309
2216.27	-0.0046072
2217.7	0.190786
2219.13	0.222203
2220.57	0.369776
2222	0.30313
2223.43	0.219412
2224.86	0.233319
2226.29	0.541837
2227.72	0.0427446
2229.16	0.216796
2230.59	-0.250016
2232.02	0.103336
2233.45	0.0960579
2234.88	0.220267
2236.31	-0.0957756
2237.74	0.422655
2239.17	0.681147
2240.6	-0.200458
2242.03	0.224655
2243.45	0.0636997
2244.88	0.14773
2246.31	-0.143987
2247.74	-0.192398
2249.17	0.246393
2250.59	0.193952
2252.02	-0.0390711
2253.45	-0.093545
2254.87	-0.098917
2256.3	0.0593281
2257.73	0.251949
2259.15	0.0252523
2260.58	-0.150132
2262	0.0498638
2263.43	0.300211
2264.85	0.583643
2266.28	-0.0109854
2267.7	0.0763111
2269.13	0.423231
2270.55	-0.0443134
2271.97	0.0410624
2273.4	0.0285959
2274.82	0.504894
2276.24	-0.224137
2277.67	-0.0243816
2279.09	0.159231
2280.51	0.440728
2281.93	-0.0769796
2283.35	0.367548
2284.77	-0.166785
2286.2	0.278174
2287.62	0.168579
2289.04	-0.00602245
2290.46	0.0156908
2291.88	-0.142145
2293.3	0.0925016
2294.72	0.0328226
2296.13	-0.20704
2297.55	-0.201522
2298.97	0.115312
2300.39	0.43259
2301.81	0.160115
2303.23	0.346999
2304.64	0.304421
2306.06	0.458807
2307.48	0.251532
2308.89	0.0764389
2310.31	0.0815611
2311.73	-0.193307
2313.14	0.173326
2314.56	0.0961494
2315.98	0.233647
2317.39	-0.0893126
2318.81	0.197709
2320.22	-0.0759478
2321.64	0.309171
2323.05	0.181145
2324.46	0.513054
2325.88	0.364243
2327.29	0.428334
2328.7	0.804757
2330.12	0.307961
2331.53	0.454576
2332.94	0.0919333
2334.35	0.0922737
2335.77	-0.433578
2337.18	0.257455
2338.59	0.158019
2340	-0.139567
2341.41	0.284887
2342.82	-0.227092
2344.23	-0.13163
2345.64	0.013114
2347.05	0.1088
2348.46	0.695467
2349.87	-0.0930834
2351.28	0.197618
2352.69	0.0296364
2354.1	-0.318385
2355.51	-0.32402
2356.91	0.0282745
2358.32	0.103273
2359.73	0.0644865
2361.14	0.0421038
2362.54	-0.0126677
2363.95	-0.0512342
2365.36	0.136723
2366.76	0.227486
2368.17	0.2379
2369.58	-0.0411129
2370.98	-0.270134
2372.39	-0.0304909
2373.79	0.354734
2375.2	0.0800447
2376.6	0.0144081
2378	0.0121813
2379.41	0.378106
2380.81	-0.141051
2382.22	0.333733
2383.62	-0.52271
2385.02	0.334265
2386.43	0.175015
2387.83	0.0169621
2389.23	0.298772
2390.63	-0.231223
2392.03	0.116224
2393.44	0.0663786
2394.84	-0.221218
2396.24	0.286949
2397.64	0.0801716
2399.04	-0.268966
2400.44	0.176784
2401.84	0.27323
2403.24	-0.0432248
2404.64	-0.0105867
2406.04	0.116496
2407.44	0.0998306
2408.84	0.0665922
2410.23	0.350101
2411.63	0.316658
2413.03	0.0622959
2414.43	0.252569
2415.83	0.0167093
2417.22	0.288673
2418.62	0.466552
2420.02	0.549814
2421.41	0.173627
2422.81	0.414848
2424.21	0.544952
2425.6	-0.10133
2427	0.108503
2428.39	0.430201
2429.79	0.308936
2431.18	0.204084
2432.58	0.448528
2433.97	0.565635
2435.36	0.316351
2436.76	0.367455
2438.15	0.29001
2439.54	0.592599
2440.94	0.195427
2442.33	0.0519967
2443.72	0.146428
2445.12	0.0502777
2446.51	-0.156918
2447.9	0.0479755
2449.29	0.331864
2450.68	0.299045
2452.07	0.250919
2453.46	0.298485
2454.85	0.283545
2456.24	0.237621
2457.64	-0.076901
2459.02	0.193689
2460.41	0.11577
2461.8	0.511455
2463.19	0.194906
2464.58	0.620596
2465.97	0.287603
2467.36	0.128445
2468.75	0.395386
2470.13	0.0152831
2471.52	0.171068
2472.91	-0.0362759
2474.3	0.165243
2475.68	0.224296
2477.07	0.45579
2478.45	0.121493
2479.84	-0.0081234
2481.23	0.0507665
2482.61	0.140833
2484	0.245975
2485.38	0.522139
2486.77	-0.296948
2488.15	0.289228
2489.54	0.187547
2490.92	-0.256423
2492.3	0.156129
2493.69	0.102872
2495.07	-0.197251
2496.45	0.186256
2497.84	-0.359363
2499.22	-0.145558
2500.6	0.253257
2501.98	0.0789027
2503.36	-0.18869
2504.75	0.114152
2506.13	0.138433
2507.51	-0.345462
2508.89	-0.0287547
2510.27	0.395145
2511.65	0.00565434
2513.03	0.184742
2514.41	0.149892
2515.79	0.100585
2517.17	-0.23859
2518.55	0.263966
2519.93	0.445257
2521.3	-0.198617
2522.68	0.21083
2524.06	0.085115
2525.44	0.233252
2526.82	0.502713
2528.19	0.102636
2529.57	0.0386491
2530.95	0.112949
2532.32	-0.19113
2533.7	0.265754
2535.08	0.449776
2536.45	0.0412517
2537.83	0.194226
2539.2	0.452574
2540.58	0.300057
2541.95	0.0714054
2543.33	0.222461
2544.7	-0.0353498
2546.08	0.163053
2547.45	0.332242
2548.82	0.380892
2550.2	0.353758
2551.57	0.098515
2552.94	-0.00583887
2554.32	0.1772
2555.69	-0.186834
2557.06	0.0251741
2558.43	-0.248284
2559.8	-0.187865
2561.18	0.479247
2562.55	0.419336
2563.92	0.0569086
2565.29	0.316197
2566.66	-0.227465
2568.03	0.411012
2569.4	0.246284
2570.77	0.384671
2572.14	0.310895
2573.51	0.373615
2574.88	0.133224
2576.25	0.120242
2577.61	-0.165743
2578.98	0.412327
2580.35	0.353238
2581.72	0.278596
2583.09	0.400707
2584.45	0.0980878
2585.82	0.386646
2587.19	0.114453
2588.55	-0.0211263
2589.92	-0.126285
2591.29	-0.00424099
2592.65	-0.125073
2594.02	0.132122
2595.38	-0.156926
2596.75	-0.0531192
2598.11	0.0195999
2599.48	0.303551
2600.84	-0.198466
2602.21	0.0103045
2603.57	-0.0220532
2604.93	0.0668311
2606.3	-0.0704408
2607.66	0.289686
2609.02	0.256851
2610.39	0.132541
2611.75	0.639287
2613.11	0.557613
2614.47	0.0997972
2615.83	0.227887
2617.19	0.22101
2618.56	0.0499611
2619.92	-0.164982
2621.28	0.129448
2622.64	0.169918
2624	0.344931
2625.36	0.0869069
2626.72	0.216702
2628.08	0.0181723
2629.44	-0.0165567
2630.8	0.141983
2632.15	0.0771718
2633.51	0.0866814
2634.87	0.0664501
2636.23	0.0758786
2637.59	-0.240724
2638.94	-0.0237584
2640.3	-0.102896
2641.66	-0.107773
2643.02	0.24215
2644.37	0.444105
2645.73	0.439164
2647.09	0.227452
2648.44	0.413115
2649.8	0.0826159
2651.15	0.17844
2652.51	-0.0933747
2653.86	0.398443
2655.22	0.157143
2656.57	-0.0534515
2657.93	0.0446572
2659.28	0.450662
2660.63	0.0378332
2661.99	0.209842
2663.34	-0.0716772
2664.69	0.098896
2666.05	0.239352
2667.4	0.175112
2668.75	0.241925
2670.1	0.076076
2671.45	0.158123
2672.81	-0.180737
2674.16	0.163887
2675.51	0.13129
2676.86	0.258834
2678.21	-0.120728
2679.56	0.153164
2680.91	0.268437
2682.26	-0.180628
2683.61	0.299324
2684.96	0.113162
2686.31	0.0869184
2687.66	0.234681
2689	-0.0831385
2690.35	0.294302
2691.7	0.466734
2693.05	0.0717745
2694.4	-0.265716
2695.74	0.0201645
2697.09	0.43667
2698.44	0.158979
2699.79	-0.00121117
2701.13	0.390447
2702.48	-0.0129948
2703.83	0.00446463
2705.17	0.196376
2706.52	0.243473
2707.86	0.130743
2709.21	0.685308
2710.55	0.208856
2711.9	0.240257
2713.24	0.126225
2714.58	0.14288
2715.93	0.203101
2717.27	0.37957
2718.62	0.366767
2719.96	0.295399
2721.3	0.50009
2722.65	0.180386
2723.99	0.267742
2725.33	0.529354
2726.67	0.222941
2728.01	0.22189
2729.35	0.00232744
2730.7	0.248288
2732.04	0.115889
2733.38	0.376359
2734.72	0.0260215
2736.06	0.257701
2737.4	-0.164999
2738.74	0.241276
2740.08	0.0946665
2741.42	0.180289
2742.76	-0.490645
2744.1	-0.13002
2745.43	0.389612
2746.77	0.269472
2748.11	-0.257171
2749.45	0.232293
2750.79	0.402464
2752.12	0.210298
2753.46	0.163403
2754.8	0.0587463
2756.14	0.0556564
2757.47	0.125111
2758.81	0.252666
2760.14	0.221314
2761.48	-0.0845222
2762.81	0.246805
2764.15	0.27453
2765.49	-0.16075
2766.82	-0.00323057
2768.16	0.0955386
2769.49	0.250894
2770.82	-0.101053
2772.16	0.441535
2773.49	-0.0999064
2774.82	0.454723
2776.16	0.403373
2777.49	0.35245
2778.82	-0.043005
2780.16	-0.193106
2781.49	-0.299635
2782.82	0.0245824
2784.15	0.00411463
2785.48	0.227285
2786.82	0.034977
2788.15	-0.0564384
2789.48	0.16772
2790.81	-0.0508447
2792.14	-0.23996
2793.47	0.27188
2794.8	0.0689383
2796.13	0.180122
2797.46	0.0193334
2798.79	0.115143
2800.12	-0.217686
2801.44	0.177059
2802.77	0.0436883
2804.1	0.0384622
2805.43	-0.0526257
2806.76	0.368233
2808.08	0.0909758
2809.41	0.0411248
2810.74	0.0765734
2812.07	0.16929
2813.39	-0.389467
2814.72	-0.393506
2816.05	0.269928
2817.37	0.21139
2818.7	-0.271796
2820.02	0.152137
2821.35	0.00871801
2822.67	-0.00775337
2824	0.301068
2825.32	0.0570011
2826.65	0.181277
2827.97	0.00865507
2829.3	0.0489521
2830.62	-0.41994
2831.94	0.357075
2833.26	0.369617
2834.59	0.367701
2835.91	0.407776
2837.23	0.348287
2838.56	0.387434
2839.88	0.327374
2841.2	0.196754
2842.52	0.674375
2843.84	0.742583
2845.16	0.924521
2846.48	0.54175
2847.8	0.880081
2849.12	0.695511
2850.45	0.722676
2851.77	1.08861
2853.08	0.76152
2854.4	0.702641
2855.72	1.09573
2857.04	1.40393
2858.36	1.44372
2859.68	1.11631
2861	1.77724
2862.32	1.42119
2863.63	1.44603
2864.95	1.49882
2866.27	1.29766
2867.59	1.49171
2868.9	1.78478
2870.22	1.93716
2871.54	1.99098
2872.85	2.03045
2874.17	1.90012
2875.48	2.17736
2876.8	2.36887
2878.11	2.24985
2879.43	2.46821
2880.74	2.46174
2882.06	2.42797
2883.37	2.12839
2884.69	2.34943
2886	2.50073
2887.31	2.24504
2888.63	2.36791
2889.94	2.54609
2891.25	2.41487
2892.57	2.45136
2893.88	2.40362
2895.19	2.30027
2896.5	2.49169
2897.82	2.46009
2899.13	2.62536
2900.44	2.69341
2901.75	2.81785
2903.06	2.63476
2904.37	2.66163
2905.68	2.8706
2906.99	3.28992
2908.3	2.71688
2909.61	3.09588
2910.92	2.76185
2912.23	3.21154
2913.54	3.12872
2914.85	3.57661
2916.16	3.49089
2917.46	3.64166
2918.77	3.72144
2920.08	4.08076
2921.39	3.6715
2922.7	4.27011
2924	3.89146
2925.31	3.82146
2926.62	4.18539
2927.92	4.5634
2929.23	4.25606
2930.54	4.33963
2931.84	4.03135
2933.15	4.07233
2934.45	4.01546
2935.76	4.29414
2937.06	3.84626
2938.37	4.19515
2939.67	3.8456
2940.98	3.73411
2942.28	4.12649
2943.58	4.1148
2944.89	3.51725
2946.19	3.57773
2947.49	3.41499
2948.8	3.29391
2950.1	3.22773
2951.4	3.11792
2952.7	2.96439
2954.01	3.00565
2955.31	2.80859
2956.61	2.87832
2957.91	3.13188
2959.21	2.88401
2960.51	2.69454
2961.81	3.2497
2963.11	2.75424
2964.41	2.4822
2965.71	2.85475
2967.01	2.46726
2968.31	2.21887
2969.61	2.43372
2970.91	2.49387
2972.21	2.35738
2973.51	2.57298
2974.81	1.94412
2976.1	2.66606
2977.4	1.9226
2978.7	2.06463
2980	1.88127
2981.29	1.68275
2982.59	1.61049
2983.89	1.93226
2985.18	2.05808
2986.48	1.3703
2987.78	1.75195
2989.07	1.27737
2990.37	1.04192
2991.66	1.48065
2992.96	1.06115
2994.25	1.48366
2995.55	0.963814
2996.84	1.22993
2998.14	0.878166
2999.43	1.01791
3000.73	0.58319
3002.02	0.569842
3003.31	0.921241
3004.61	0.768263
3005.9	0.741191
3007.19	0.503622
3008.48	0.475385
3009.77	0.320545
3011.07	0.444697
3012.36	0.261142
3013.65	0.189502
3014.94	0.21596
3016.23	0.354497
3017.52	0.507519
3018.81	0.396521
3020.1	0.424821
3021.4	0.17473
3022.68	0.201992
3023.97	0.228328
3025.26	0.475755
3026.55	0.279313
3027.84	-0.248355
3029.13	-0.248694
3030.42	-0.109493
3031.71	0.113797
3033	-0.159057
3034.28	0.162045
3035.57	0.109982
3036.86	0.34633
3038.15	-0.0805674
3039.43	-0.274404
3040.72	0.218056
3042.01	0.200552
3043.29	0.169379
3044.58	-0.161992
3045.87	-0.203898
3047.15	0.207091
3048.44	0.0327067
3049.72	-0.0985489
3051.01	0.208432
3052.29	0.038609
3053.58	0.114474
3054.86	0.271625
3056.15	0.127735
3057.43	0.419199
3058.71	0.409914
3060	0.18258
3061.28	0.0919886
3062.56	0.288067
3063.84	0.267809
3065.13	0.276283
3066.41	0.313328
3067.69	0.297001
3068.97	0.0363302
3070.26	0.482652
3071.54	0.411412
3072.82	0.148687
3074.1	0.0753007
3075.38	0.123453
3076.66	0.0355148
3077.94	0.124554
3079.22	0.0110607
3080.5	0.0347342
3081.78	-0.279203
3083.06	0.0592012
3084.34	0.113479
3085.62	-0.239241
3086.9	-0.00873041
3088.18	-0.253849
3089.45	0.111243
3090.73	0.34018
3092.01	0.0262942
3093.29	-0.0566621
3094.56	0.0506177
3095.84	-0.235008
3097.12	0.130324
3098.4	0.33289
3099.67	0.10171
3100.95	0.0738416
3102.22	-0.0622139
3103.5	-0.0489354
3104.78	0.343881
3106.05	0.290727
3107.33	-0.0456452
3108.6	-0.00206089
3109.88	-0.133376
3111.15	0.223657
3112.43	0.364986
3113.7	0.276569
3114.97	0.405054
3116.25	0.221364
3117.52	0.0639992
3118.79	0.407549
3120.07	0.709394
3121.34	0.549319
3122.61	0.388843
3123.88	0.634804
3125.16	0.21736
3126.43	0.206812
3127.7	0.345712
3128.97	0.403939
3130.24	0.90877
3131.51	0.156444
3132.79	0.323408
3134.06	0.598055
3135.33	0.737034
3136.6	0.484178
3137.87	0.608759
3139.14	0.665529
3140.41	0.520276
3141.67	0.913351
3142.94	0.728367
3144.21	0.638264
3145.48	0.763639
3146.75	0.782333
3148.02	0.694597
3149.29	1.07627
