200.407	0.602535
202.221	0.584305
204.035	0.567451
205.849	0.33338
207.665	0.999941
209.478	0.450955
211.291	1.11628
213.104	0.614819
214.916	0.695466
216.73	1.28481
218.541	0.784003
220.352	0.502933
222.163	0.53822
223.973	0.381592
225.785	-0.0878944
227.595	-0.363111
229.404	-0.0826054
231.213	0.438899
233.022	0.115716
234.83	-0.495684
236.638	0.196836
238.448	0.626698
240.255	0.457317
242.062	0.122186
243.868	0.0300732
245.675	0.517606
247.48	-0.323563
249.286	0.0880909
251.091	0.47258
252.896	0.105932
254.702	-0.286122
256.506	0.334751
258.31	-0.104033
260.113	0.182502
261.916	-0.0343418
263.719	0.136595
265.521	0.236959
267.323	0.217715
269.125	-0.0907221
270.926	-0.230998
272.727	-0.203411
274.527	0.136422
276.328	-0.41721
278.127	0.256745
279.927	0.663218
281.726	-0.0641403
283.525	0.289986
285.323	0.23366
287.121	0.152818
288.919	-0.383151
290.716	0.472422
292.513	0.418822
294.31	0.223969
296.104	-0.255493
297.9	0.342519
299.696	-0.181864
301.491	-0.419164
303.286	0.441369
305.081	0.130641
306.875	-0.10904
308.669	0.676557
310.463	0.50922
312.256	0.62956
314.047	0.442578
315.839	0.115314
317.631	-0.185748
319.423	0.0630617
321.215	0.361424
323.006	0.446725
324.794	0.365921
326.585	0.977901
328.375	0.228836
330.165	0.123811
331.954	0.0653915
333.741	1.20146
335.53	0.732345
337.318	-0.241933
339.106	0.0258455
340.894	0.339638
342.679	-0.63845
344.466	-0.325305
346.253	0.0839033
348.039	0.135718
349.823	0.164473
351.608	0.288969
353.393	0.0550442
355.176	-0.108221
356.961	-0.320395
358.745	0.467149
360.529	-0.00968552
362.31	0.155726
364.093	0.629251
365.876	0.578602
367.657	-0.137346
369.439	0.14311
371.221	0.137865
373	-0.625183
374.781	0.0311728
376.56	0.426585
378.34	0.255979
380.12	0.605257
381.898	1.26153
383.677	-0.198261
385.456	0.249654
387.233	1.16876
389.011	0.914295
390.787	0.919754
392.565	1.04388
394.34	0.229601
396.117	0.378822
397.894	1.04505
399.668	0.1611
401.444	0.920889
403.217	-0.152029
404.993	0.160084
406.766	0.518305
408.54	0.59404
410.312	0.15304
412.086	0.392958
413.858	0.304913
415.631	0.264808
417.402	0.0850267
419.174	0.234677
420.944	0.173571
422.716	-0.122443
424.486	-0.0436192
426.257	0.104667
428.025	0.392874
429.794	0.657052
431.564	0.334477
433.332	0.387928
435.101	0.254161
436.868	0.0265932
438.637	-0.248607
440.403	-0.290693
442.169	-0.194275
443.937	0.134005
445.703	0.319091
447.468	-0.0827017
449.234	0.708286
450.999	-0.0439501
452.765	0.0226097
454.528	0.229382
456.292	-0.0535622
458.057	0.106324
459.819	1.12711
461.582	1.44971
463.344	0.54222
465.107	0.45178
466.868	0.155885
468.629	0.421124
470.392	0.456536
472.152	0.981549
473.912	0.43534
475.672	-0.0436144
477.433	0.359829
479.192	0.504801
480.951	0.997891
482.709	0.512909
484.469	1.12411
486.226	0.526646
487.984	0.5142
489.74	0.247827
491.499	0.752747
493.255	0.838883
495.011	0.52795
496.767	0.286604
498.522	0.770823
500.277	-0.315803
502.033	0.284851
503.788	0.180762
505.541	0.662759
507.295	1.14363
509.048	0.18798
510.801	0.0298452
512.553	0.811041
514.308	1.54329
516.06	1.26196
517.811	0.9792
519.562	1.35358
521.313	0.904282
523.063	1.11238
524.814	1.27305
526.563	1.15203
528.313	1.1719
530.062	0.886984
531.811	0.719009
533.559	0.667296
535.308	0.590822
537.055	0.0920858
538.803	0.643206
540.55	0.165569
542.297	-0.125605
544.043	0.537319
545.789	0.176184
547.535	0.303526
549.281	0.569987
551.026	0.118286
552.771	0.731858
554.515	0.78981
556.259	0.363253
558.003	0.283942
559.747	0.0901995
561.49	0.127682
563.233	0.487842
564.975	0.365507
566.717	0.404938
568.459	0.169814
570.2	-0.224435
571.942	0.25498
573.68	-0.250172
575.421	0.141459
577.161	0.191051
578.901	0.196394
580.64	-0.0958729
582.379	0.0713024
584.118	0.329979
585.855	0.173667
587.593	0.0387516
589.331	0.891622
591.068	0.33994
592.805	0.799905
594.54	-0.051775
596.277	0.569052
598.013	0.522634
599.749	0.0156679
601.484	-0.101142
603.217	-0.334382
604.952	0.327411
606.687	-0.161885
608.421	0.335821
610.153	0.213069
611.886	-0.115458
613.619	-0.121759
615.35	0.216528
617.083	0.302776
618.815	0.457063
620.547	-0.0539227
622.276	0.189109
624.008	-0.277933
625.738	0.100842
627.467	-0.615523
629.197	-0.302081
630.927	0.310515
632.655	0.423528
634.384	0.3325
636.113	0.629169
637.839	-0.0805941
639.568	-0.0402069
641.293	0.772136
643.021	0.258426
644.748	0.176618
646.473	0.459209
648.2	1.08451
649.924	0.213392
651.65	-0.107493
653.376	0.167028
655.099	0.150117
656.824	0.090394
658.546	0.191263
660.271	-0.16445
661.993	-0.0202236
663.716	0.464337
665.438	0.557788
667.161	0.603172
668.881	0.395973
670.604	0.44104
672.324	1.08345
674.045	0.241101
675.765	0.0417757
677.486	1.22018
679.204	0.63273
680.925	0.870545
682.643	0.807444
684.361	0.856692
686.08	0.926476
687.797	0.740919
689.516	0.162328
691.232	0.803633
692.95	0.730065
694.666	0.563437
696.382	1.10951
698.099	1.12429
699.813	0.999397
701.528	1.14912
703.244	1.09055
704.958	0.778509
706.673	1.10883
708.387	0.77306
710.099	1.67465
711.814	1.79581
713.526	0.429571
715.238	0.825151
716.949	1.21992
718.663	1.77372
720.374	1.48346
722.084	0.374081
723.796	1.1096
725.506	0.411508
727.216	1.19063
728.925	0.152403
730.636	0.861203
732.345	0.956639
734.053	0.599086
735.761	1.55323
737.471	0.992967
739.178	0.953452
740.885	1.00531
742.592	1.41893
744.298	0.865612
746.006	2.76742
747.712	2.17256
749.417	2.0296
751.122	1.75337
752.827	1.77118
754.532	1.9482
756.236	2.01468
757.942	1.8355
759.645	1.74809
761.348	1.68453
763.051	1.55386
764.753	2.1678
766.456	1.51587
768.158	2.03642
769.859	2.238
771.56	2.0073
773.261	2.95058
774.964	1.90325
776.664	2.41676
778.364	2.66056
780.064	2.61241
781.763	1.95489
783.462	2.02135
785.16	1.92803
786.859	2.2166
788.557	2.25215
790.255	1.83105
791.952	1.04544
793.649	1.41079
795.346	1.93292
797.042	1.50853
798.738	1.67233
800.434	2.01818
802.127	1.48805
803.823	1.79128
805.517	0.902647
807.212	1.27213
808.906	1.48262
810.6	1.35477
812.293	1.06897
813.987	1.25343
815.68	1.68349
817.372	1.24038
819.064	0.775722
820.754	1.38388
822.446	1.58982
824.137	1.41731
825.828	2.20485
827.519	2.12554
829.209	1.31476
830.897	0.663554
832.587	0.839604
834.276	1.53094
835.966	2.26893
837.654	2.15952
839.341	1.64663
841.029	1.2877
842.717	1.32908
844.404	1.52624
846.091	2.50652
847.776	1.47722
849.463	1.85933
851.149	1.52855
852.833	1.60296
854.519	2.03773
856.204	1.30523
857.889	1.9639
859.572	1.40654
861.256	1.63422
862.94	0.981535
864.622	0.777435
866.305	1.3611
867.988	1.20015
869.669	1.42196
871.351	1.64343
873.033	1.0525
874.713	0.844877
876.395	1.35931
878.074	1.19679
879.755	1.53069
881.435	1.61587
883.114	0.729414
884.794	0.564073
886.471	0.735703
888.15	0.815129
889.829	0.441568
891.506	-0.0910635
893.184	0.726729
894.861	0.821788
896.538	1.00528
898.214	1.07489
899.891	0.470219
901.566	1.18789
903.242	0.851345
904.916	1.61048
906.592	0.62689
908.266	0.694253
909.941	0.896058
911.614	0.408855
913.288	0.856852
914.961	0.904758
916.635	0.863872
918.306	0.202429
919.979	1.04795
921.651	1.80409
923.321	1.41091
924.994	1.30744
926.664	0.875174
928.336	1.59302
930.005	1.05423
931.674	0.560616
933.345	0.861636
935.014	0.390777
936.682	1.00119
938.352	1.10528
940.019	1.03439
941.687	1.22968
943.356	1.18324
945.022	0.783503
946.689	1.15488
948.357	0.530735
950.022	-0.0955315
951.688	0.821444
953.355	0.458624
955.02	1.00183
956.684	0.46772
958.348	0.532792
960.014	0.799913
961.678	0.80425
963.341	0.322226
965.004	0.434825
966.669	0.632895
968.331	0.827673
969.993	0.64373
971.655	0.878983
973.316	-0.676683
974.979	0.312601
976.64	0.109791
978.3	0.682916
979.961	0.681859
981.62	0.680364
983.28	1.09789
984.941	0.649696
986.6	0.132699
988.259	0.144861
989.917	0.442976
991.575	0.541051
993.233	0.417901
994.89	0.405349
996.547	0.194385
998.204	0.578955
999.86	0.808539
1001.52	1.38968
1003.17	1.26529
1004.83	1.09664
1006.49	0.312746
1008.14	0.650042
1009.79	0.833628
1011.45	0.249941
1013.1	0.741432
1014.76	-0.58519
1016.41	0.454426
1018.06	0.311996
1019.72	0.892389
1021.37	0.795844
1023.02	0.547719
1024.67	1.24062
1026.32	0.666677
1027.97	1.27279
1029.62	1.6158
1031.27	1.82602
1032.92	1.53186
1034.57	1.21398
1036.22	0.894709
1037.87	0.966976
1039.52	1.67023
1041.17	0.720116
1042.82	0.859779
1044.47	1.17527
1046.11	0.711069
1047.76	-0.0329065
1049.41	0.549938
1051.06	0.569696
1052.7	1.37257
1054.35	-0.105324
1055.99	0.633051
1057.64	0.827925
1059.28	0.717863
1060.93	0.346049
1062.57	0.364654
1064.22	0.142968
1065.86	0.224434
1067.5	-0.151858
1069.15	0.665838
1070.79	0.461392
1072.43	0.0615568
1074.08	0.205055
1075.72	0.653345
1077.36	0.517516
1079	0.730227
1080.64	0.380109
1082.28	1.11424
1083.92	0.502899
1085.56	0.691835
1087.2	0.553102
1088.84	0.606796
1090.48	1.15583
1092.12	1.2268
1093.76	0.627431
1095.39	0.504048
1097.03	0.554356
1098.67	0.84318
1100.31	0.208146
1101.94	0.867195
1103.58	0.237305
1105.22	0.297621
1106.85	0.702782
1108.49	0.849458
1110.12	0.457218
1111.76	0.622071
1113.39	0.548441
1115.03	0.516226
1116.66	0.504731
1118.29	-0.171234
1119.93	0.868436
1121.56	1.22294
1123.19	0.722382
1124.82	0.88674
1126.46	0.98796
1128.09	1.0046
1129.72	0.487638
1131.35	0.484634
1132.98	0.824065
1134.61	0.201389
1136.24	0.326141
1137.87	-0.0418768
1139.5	0.763646
1141.13	0.585115
1142.76	-0.532837
1144.39	0.696572
1146.01	-0.20619
1147.64	0.725657
1149.27	0.379739
1150.9	0.418037
1152.53	-0.0760336
1154.15	1.09032
1155.78	0.0420427
1157.4	0.69634
1159.03	1.1167
1160.65	0.2408
1162.28	0.429691
1163.9	0.726149
1165.53	0.279119
1167.15	0.405879
1168.78	0.0636129
1170.4	0.335801
1172.02	0.0742435
1173.65	0.0230875
1175.27	1.1161
1176.89	0.680383
1178.51	0.478578
1180.14	0.129753
1181.76	-0.0905609
1183.38	0.705032
1185	0.084115
1186.62	-0.431589
1188.24	0.169807
1189.86	0.177493
1191.48	0.603833
1193.1	-0.738978
1194.71	0.0204449
1196.33	0.10679
1197.95	-0.224741
1199.57	0.157704
1201.19	0.458672
1202.8	0.470209
1204.42	0.54766
1206.04	0.2314
1207.65	-0.103901
1209.27	0.124487
1210.88	0.977551
1212.5	0.556188
1214.12	0.924221
1215.73	0.976502
1217.35	0.44383
1218.96	0.264143
1220.57	0.354508
1222.19	0.901771
1223.8	0.828006
1225.41	0.487144
1227.03	0.91431
1228.64	0.680987
1230.25	0.594215
1231.86	0.777749
1233.47	1.21079
1235.08	0.922048
1236.69	1.04825
1238.31	0.700347
1239.92	1.44914
1241.52	1.10235
1243.13	1.23083
1244.74	0.406555
1246.35	1.19491
1247.96	0.885275
1249.57	1.13333
1251.18	1.0706
1252.78	1.69075
1254.39	1.2362
1256	0.969229
1257.6	0.414177
1259.21	1.12261
1260.82	0.818363
1262.42	1.17718
1264.03	0.666279
1265.63	1.06631
1267.24	0.760928
1268.84	0.723741
1270.45	0.540112
1272.05	1.28819
1273.65	0.956791
1275.26	0.914411
1276.86	1.30602
1278.46	0.805582
1280.06	0.760271
1281.67	1.10784
1283.27	1.99312
1284.87	0.128006
1286.47	0.890754
1288.07	0.993035
1289.67	1.50978
1291.27	1.51053
1292.87	1.15995
1294.47	1.24237
1296.07	1.32312
1297.67	1.87652
1299.27	1.41618
1300.87	1.75847
1302.47	1.62476
1304.06	1.5106
1305.66	1.10785
1307.26	2.10183
1308.85	2.62141
1310.45	1.66433
1312.05	2.04047
1313.64	1.51696
1315.24	2.38526
1316.83	2.88592
1318.43	2.57055
1320.02	2.66327
1321.62	2.24536
1323.21	2.29414
1324.8	2.60465
1326.4	2.72968
1327.99	2.26561
1329.59	2.0869
1331.18	2.88157
1332.77	2.68768
1334.36	2.90118
1335.95	2.41053
1337.54	1.80027
1339.14	2.25816
1340.73	1.3637
1342.32	3.24492
1343.91	2.44597
1345.5	2.81169
1347.09	1.17139
1348.67	2.26113
1350.26	1.79116
1351.85	2.16542
1353.44	2.04239
1355.03	2.56089
1356.62	2.22046
1358.2	1.44018
1359.79	2.13688
1361.38	1.63393
1362.96	1.78863
1364.55	2.22176
1366.14	2.23628
1367.72	2.3913
1369.31	1.85117
1370.89	1.77107
1372.48	1.97148
1374.06	1.53673
1375.64	1.36158
1377.23	1.90297
1378.81	2.30442
1380.39	2.1473
1381.98	2.24703
1383.56	1.66873
1385.14	1.16903
1386.72	1.96053
1388.3	1.24227
1389.89	2.23258
1391.47	1.7352
1393.05	1.17972
1394.63	1.2002
1396.21	1.35928
1397.79	2.36973
1399.37	1.75323
1400.95	1.47264
1402.52	1.58742
1404.1	1.66245
1405.68	1.48102
1407.26	1.24164
1408.84	1.53706
1410.42	0.884898
1411.99	1.10196
1413.57	1.37735
1415.15	1.55266
1416.72	1.23363
1418.3	1.70279
1419.87	1.46268
1421.45	1.32267
1423.02	2.05097
1424.6	2.28923
1426.17	1.46645
1427.75	1.3727
1429.32	1.21957
1430.89	1.22274
1432.47	2.24768
1434.04	1.77565
1435.61	2.0506
1437.18	1.69648
1438.76	1.93323
1440.33	2.64294
1441.9	2.43024
1443.47	1.92376
1445.04	2.4005
1446.61	1.36409
1448.18	2.07721
1449.75	2.26006
1451.32	2.08968
1452.89	1.80197
1454.46	2.16383
1456.03	2.44713
1457.6	2.29675
1459.16	2.10526
1460.73	2.54115
1462.3	1.69546
1463.87	1.75275
1465.43	2.14262
1467	2.04043
1468.56	1.91919
1470.13	1.93665
1471.7	1.87717
1473.26	1.01508
1474.83	1.70352
1476.39	1.47082
1477.96	1.0031
1479.52	1.33909
1481.08	0.694903
1482.65	0.893451
1484.21	0.954623
1485.77	0.486398
1487.34	1.23172
1488.9	0.506531
1490.46	1.20807
1492.02	0.341671
1493.58	1.05617
1495.15	0.693699
1496.71	0.486546
1498.27	0.902308
1499.83	0.734635
1501.39	1.28704
1502.95	0.30777
1504.51	1.23035
1506.07	0.796582
1507.63	0.440194
1509.18	0.624172
1510.74	0.902714
1512.3	0.196561
1513.86	0.550272
1515.41	0.326619
1516.97	1.12178
1518.53	0.573759
1520.08	0.947225
1521.64	0.55479
1523.2	0.506853
1524.75	0.267133
1526.31	0.579679
1527.86	1.19488
1529.42	0.780814
1530.97	0.880513
1532.52	0.582408
1534.08	0.646018
1535.63	1.2972
1537.19	0.720055
1538.74	1.22094
1540.29	1.21223
1541.84	0.0733671
1543.4	0.969192
1544.95	1.01692
1546.5	1.30844
1548.05	1.63667
1549.6	1.19568
1551.15	1.5048
1552.7	1.87014
1554.25	1.02122
1555.8	1.4268
1557.35	1.55424
1558.9	2.00143
1560.45	1.07055
1562	1.8396
1563.54	1.56551
1565.09	1.70266
1566.64	1.28017
1568.19	1.60384
1569.73	1.46041
1571.28	2.10046
1572.83	2.18013
1574.37	1.88626
1575.92	2.13377
1577.47	1.39216
1579.01	2.92871
1580.56	1.85238
1582.1	2.55097
1583.64	2.44781
1585.19	2.34565
1586.73	2.375
1588.28	2.96573
1589.82	2.24684
1591.36	2.72477
1592.9	1.81673
1594.45	2.49979
1595.99	2.47134
1597.53	2.14356
1599.07	2.21019
1600.61	2.80311
1602.15	2.94685
1603.69	2.48986
1605.23	3.7223
1606.77	3.69455
1608.31	3.09997
1609.85	2.18248
1611.39	2.85916
1612.93	1.52301
1614.47	2.26985
1616.01	1.23327
1617.55	1.7731
1619.08	1.65814
1620.62	1.95731
1622.16	1.8837
1623.7	2.33546
1625.23	1.27097
1626.77	1.70309
1628.3	1.29137
1629.84	0.84077
1631.37	1.90314
1632.91	1.45075
1634.44	1.95129
1635.98	1.48217
1637.51	1.63013
1639.05	1.87206
1640.58	1.64797
1642.11	1.27423
1643.65	2.03526
1645.18	1.08179
1646.71	1.50449
1648.24	0.736897
1649.78	1.45633
1651.31	1.67503
1652.84	1.78384
1654.37	0.763065
1655.9	1.17101
1657.43	1.56011
1658.96	1.74422
1660.49	1.66729
1662.02	1.94003
1663.55	0.879878
1665.08	1.22439
1666.61	1.19965
1668.14	1.39761
1669.66	0.767768
1671.19	1.28274
1672.72	1.41198
1674.25	1.39446
1675.77	0.824368
1677.3	0.64014
1678.83	1.39292
1680.35	1.04042
1681.88	1.33044
1683.4	0.774961
1684.93	1.30295
1686.45	0.67535
1687.98	0.928832
1689.5	0.761202
1691.03	1.0335
1692.55	0.829808
1694.07	0.0592146
1695.6	0.806598
1697.12	0.292095
1698.64	0.928215
1700.17	0.541007
1701.69	0.408964
1703.21	0.695555
1704.73	1.12667
1706.25	0.191833
1707.77	-0.178229
1709.29	0.160622
1710.81	0.517125
1712.33	-0.142201
1713.85	0.0513067
1715.37	0.117852
1716.89	0.220389
1718.41	-0.129238
1719.93	-0.351977
1721.45	0.165609
1722.97	-0.110229
1724.49	0.0299187
1726	0.0454426
1727.52	-0.0274105
1729.04	0.206925
1730.55	-0.203045
1732.07	-0.0726814
1733.59	0.668449
1735.1	-0.0519791
1736.62	-0.00994301
1738.13	0.332156
1739.65	0.0665245
1741.16	0.18067
1742.68	0.153589
1744.19	0.210617
1745.7	-0.11526
1747.22	0.200398
1748.73	-0.0897036
1750.24	0.115643
1751.76	0.235946
1753.27	0.0436678
1754.78	-0.0124807
1756.29	0.391084
1757.8	-0.185437
1759.31	0.00549221
1760.83	0.122211
1762.34	0.470881
1763.85	0.547421
1765.36	0.417192
1766.87	0.351896
1768.38	0.252996
1769.89	-0.146599
1771.39	-0.0138521
1772.9	0.0133734
1774.41	0.0231657
1775.92	0.119152
1777.43	-0.0429468
1778.94	-0.0394068
1780.44	-0.123102
1781.95	-0.0224333
1783.46	0.000349045
1784.96	0.0213499
1786.47	0.0109797
1787.97	0.0122309
1789.48	0.211843
1790.99	-0.111043
1792.49	-0.0391979
1794	-0.0184994
1795.5	-0.160454
1797	0.353546
1798.51	0.293142
1800.01	0.229135
1801.51	0.0202608
1803.02	0.174452
1804.52	0.203965
1806.02	-0.135086
1807.53	0.40247
1809.03	0.157468
1810.53	-0.123574
1812.03	0.0138845
1813.53	0.104306
1815.03	0.529897
1816.53	0.131749
1818.03	0.193723
1819.53	0.102997
1821.03	0.207624
1822.53	0.0117741
1824.03	-0.0824537
1825.53	0.188805
1827.03	0.199986
1828.53	-0.127769
1830.02	-0.244564
1831.52	0.187198
1833.02	0.174604
1834.52	0.0880613
1836.01	-0.154451
1837.51	0.156056
1839.01	0.0843077
1840.5	0.417788
1842	0.529334
1843.49	0.27837
1844.99	0.0855398
1846.48	0.102366
1847.98	-0.153599
1849.47	0.20241
1850.97	0.035121
1852.46	0.355618
1853.95	0.0989904
1855.45	-0.0378361
1856.94	0.226713
1858.43	0.307511
1859.93	0.000212669
1861.42	0.114338
1862.91	0.130687
1864.4	-0.0682974
1865.89	-0.286302
1867.38	-0.571548
1868.87	0.204762
1870.36	0.38429
1871.85	0.0462236
1873.34	0.415092
1874.83	-0.0058136
1876.32	0.471908
1877.81	-0.0164108
1879.3	0.26301
1880.79	0.300606
1882.28	0.481807
1882.52	0.522778
1884.02	-0.122969
1885.51	0.241531
1887.01	0.395658
1888.5	0.444564
1889.99	-0.150095
1891.49	0.648216
1892.98	-0.029892
1894.47	-0.131955
1895.97	0.584988
1897.46	-0.035964
1898.95	0.195065
1900.44	0.0596237
1901.93	-0.129904
1903.42	-0.164886
1904.91	-0.166739
1906.4	-0.117376
1907.89	-0.102838
1909.38	0.0165281
1910.87	0.345098
1912.36	0.0327177
1913.85	-0.105431
1915.34	-0.41683
1916.83	0.29439
1918.32	-0.139297
1919.8	0.639608
1921.29	-0.227584
1922.78	-0.00288486
1924.27	-0.0715895
1925.75	0.397685
1927.24	0.227681
1928.73	0.231558
1930.21	-0.232156
1931.7	0.498033
1933.18	0.0489721
1934.67	0.307737
1936.15	0.027957
1937.64	0.075613
1939.12	0.329998
1940.61	-0.0199566
1942.09	0.183733
1943.57	0.16421
1945.06	-0.216407
1946.54	-0.061945
1948.02	0.178317
1949.51	0.210812
1950.99	0.397051
1952.47	-0.106315
1953.95	0.250069
1955.43	-0.390778
1956.91	-0.017169
1958.4	-0.140941
1959.88	0.0793428
1961.36	-0.145761
1962.84	0.29801
1964.32	0.432799
1965.8	0.121618
1967.27	-0.19005
1968.75	0.592583
1970.23	-0.130697
1971.71	0.0178318
1973.19	0.422092
1974.67	0.655327
1976.14	-0.0489616
1977.62	0.337977
1979.1	-0.143562
1980.58	0.0729036
1982.05	0.186888
1983.53	0.249394
1985	0.192594
1986.48	-0.237535
1987.95	0.0277948
1989.43	-0.147205
1990.9	-0.0335073
1992.38	0.148783
1993.85	0.0784779
1995.33	0.29647
1996.8	0.362786
1998.27	0.27702
1999.75	0.308971
2001.22	0.407673
2002.69	0.235818
2004.16	0.552848
2005.64	0.29707
2007.11	0.328727
2008.58	0.159419
2010.05	0.0753803
2011.52	0.29498
2012.99	0.127462
2014.46	0.144612
2015.93	-0.0746889
2017.4	0.293736
2018.87	0.324672
2020.34	0.0860844
2021.81	0.317789
2023.28	0.163581
2024.75	-0.0902414
2026.22	0.395504
2027.69	-0.106774
2029.15	0.214547
2030.62	0.470408
2032.09	0.3248
2033.56	0.246821
2035.02	0.471044
2036.49	-0.111388
2037.96	-0.173856
2039.42	0.351419
2040.89	0.288493
2042.35	0.343675
2043.82	0.0970182
2045.28	-0.283411
2046.75	0.111097
2048.21	-0.0495138
2049.67	0.345501
2051.14	0.0315456
2052.6	-0.149481
2054.07	-0.13022
2055.53	-0.163534
2056.99	0.0881901
2058.45	0.254552
2059.92	0.235305
2061.38	-0.0191698
2062.84	-0.222057
2064.3	0.114824
2065.76	0.435954
2067.22	-0.218024
2068.68	-0.13087
2070.14	0.562649
2071.6	0.515666
2073.06	0.434818
2074.52	0.303118
2075.98	0.474125
2077.44	-0.163629
2078.9	-0.347152
2080.36	0.0413504
2081.82	0.227098
2083.27	-0.0929785
2084.73	0.22572
2086.19	-0.0285749
2087.65	-0.0984154
2089.1	-0.0174122
2090.56	0.113659
2092.02	0.0262594
2093.47	-0.0779333
2094.93	-0.0313768
2096.38	0.416802
2097.84	0.12668
2099.29	0.104033
2100.75	0.21483
2102.2	0.409256
2103.66	-0.0134802
2105.11	-0.150543
2106.56	0.181185
2108.02	0.363792
2109.47	0.163184
2110.92	0.462161
2112.38	-0.00710297
2113.83	0.138355
2115.28	0.18195
2116.73	0.058198
2118.18	0.167555
2119.63	0.11226
2121.09	0.490527
2122.54	0.141014
2123.99	0.539506
2125.44	0.0764456
2126.89	0.160299
2128.34	0.209851
2129.79	0.141825
2131.23	-0.34165
2132.68	0.0187082
2134.13	0.0146675
2135.58	0.309112
2137.03	0.505786
2138.48	0.37396
2139.92	-0.40026
2141.37	0.331319
2142.82	0.138606
2144.27	0.442763
2145.71	0.763881
2147.16	0.207392
2148.6	0.0638552
2150.05	-0.229815
2151.49	0.104967
2152.94	0.471858
2154.38	0.30762
2155.83	-0.337542
2157.27	-0.121117
2158.72	0.211984
2160.16	0.148959
2161.6	0.352951
2163.05	0.0285959
2164.49	0.136859
2165.93	0.295986
2167.38	0.305716
2168.82	-0.350687
2170.26	0.187889
2171.7	0.292006
2173.14	0.244283
2174.58	-0.13761
2176.03	0.145207
2177.47	0.0124521
2178.91	0.312802
2180.35	-0.0674601
2181.79	0.168375
2183.23	-0.210398
2184.67	0.0430403
2186.1	0.363189
2187.54	0.217591
2188.98	0.105263
2190.42	0.425652
2191.86	0.213108
2193.3	0.0829544
2194.73	-0.165181
2196.17	-0.215412
2197.61	0.830377
2199.05	0.393231
2200.48	0.354264
2201.92	0.149158
2203.35	-0.0051651
2204.79	0.372471
2206.22	0.00506878
2207.66	-0.228908
2209.1	0.0173445
2210.53	0.610088
2211.97	0.473213
2213.4	-0.0610294
2214.83	0.231193
2216.27	-0.00452518
2217.7	0.652132
2219.13	0.188225
2220.57	0.385035
2222	-0.176254
2223.43	-0.0954065
2224.86	0.263798
2226.29	0.028264
2227.72	-0.0443144
2229.16	0.423779
2230.59	-0.127116
2232.02	-0.0543537
2233.45	-0.128755
2234.88	0.0594244
2236.31	-0.274229
2237.74	0.112648
2239.17	-0.00466061
2240.6	0.0108271
2242.03	0.142467
2243.45	0.112384
2244.88	-0.0477877
2246.31	0.00335217
2247.74	-0.485429
2249.17	0.148617
2250.59	-0.0676365
2252.02	0.251631
2253.45	0.813289
2254.87	-0.169188
2256.3	0.0691166
2257.73	0.536921
2259.15	0.196555
2260.58	0.11912
2262	0.401482
2263.43	-0.256042
2264.85	0.126062
2266.28	0.345618
2267.7	0.369264
2269.13	-0.194017
2270.55	0.99959
2271.97	0.0764389
2273.4	0.0484133
2274.82	0.281104
2276.24	-0.0561543
2277.67	0.111862
2279.09	0.149616
2280.51	0.643907
2281.93	0.453245
2283.35	0.376588
2284.77	0.707911
2286.2	0.190857
2287.62	-0.0811577
2289.04	-0.303868
2290.46	0.225338
2291.88	0.313926
2293.3	-0.25144
2294.72	0.262529
2296.13	0.383999
2297.55	-0.0512619
2298.97	0.119313
2300.39	0.257463
2301.81	0.232089
2303.23	0.256229
2304.64	0.182087
2306.06	-0.122148
2307.48	-0.0327206
2308.89	0.467127
2310.31	-0.151509
2311.73	-0.211729
2313.14	0.221585
2314.56	0.0960045
2315.98	0.218153
2317.39	0.143601
2318.81	0.465107
2320.22	0.423837
2321.64	-0.03127
2323.05	-0.17519
2324.46	0.519975
2325.88	0.469828
2327.29	0.681586
2328.7	0.315387
2330.12	-0.0501862
2331.53	0.0630388
2332.94	0.374922
2334.35	0.243363
2335.77	-0.200413
2337.18	0.21073
2338.59	0.423212
2340	0.0754862
2341.41	0.351093
2342.82	0.215482
2344.23	0.0308113
2345.64	0.0597448
2347.05	0.0562077
2348.46	-0.0291367
2349.87	-0.0657253
2351.28	0.567058
2352.69	-0.20692
2354.1	-0.295241
2355.51	-0.107051
2356.91	0.194349
2358.32	0.0396395
2359.73	0.161594
2361.14	0.283404
2362.54	0.0158339
2363.95	0.234566
2365.36	0.323333
2366.76	0.0404263
2368.17	-0.128206
2369.58	0.220805
2370.98	-0.348029
2372.39	-0.125271
2373.79	-0.368613
2375.2	0.306166
2376.6	-0.114123
2378	-0.535178
2379.41	-0.202147
2380.81	0.0482235
2382.22	0.184219
2383.62	0.0145683
2385.02	-0.0909529
2386.43	0.267532
2387.83	0.211305
2389.23	-0.0507069
2390.63	0.214872
2392.03	-0.187239
2393.44	0.207829
2394.84	0.269466
2396.24	0.0616026
2397.64	-0.177182
2399.04	-0.0815258
2400.44	-0.207761
2401.84	0.285853
2403.24	-0.25291
2404.64	-0.172648
2406.04	0.319332
2407.44	-0.0786705
2408.84	0.252327
2410.23	-0.0514431
2411.63	-0.180383
2413.03	0.214297
2414.43	0.356856
2415.83	-0.0688334
2417.22	-0.255547
2418.62	0.0337372
2420.02	0.149321
2421.41	-0.21039
2422.81	0.142305
2424.21	0.336333
2425.6	0.0233889
2427	0.424138
2428.39	0.382192
2429.79	0.071702
2431.18	0.158414
2432.58	0.420017
2433.97	0.268315
2435.36	0.0993242
2436.76	0.357574
2438.15	0.423407
2439.54	-0.115917
2440.94	0.51912
2442.33	-0.0692234
2443.72	0.0883484
2445.12	0.324893
2446.51	-0.073123
2447.9	0.479896
2449.29	-0.0288935
2450.68	-0.251982
2452.07	0.174616
2453.46	0.000549316
2454.85	0.15975
2456.24	0.272246
2457.64	0.116195
2459.02	-0.150731
2460.41	-0.260089
2461.8	0.356997
2463.19	0.0244818
2464.58	0.197116
2465.97	0.195542
2467.36	-0.0113516
2468.75	-0.107677
2470.13	0.190128
2471.52	0.597452
2472.91	0.10558
2474.3	0.195923
2475.68	-0.013483
2477.07	0.107079
2478.45	0.25879
2479.84	-0.201538
2481.23	0.389582
2482.61	-0.023015
2484	0.0967779
2485.38	-0.0974369
2486.77	0.0980415
2488.15	0.291824
2489.54	0.359584
2490.92	-0.18
2492.3	-0.0647764
2493.69	0.253224
2495.07	0.370451
2496.45	0.147949
2497.84	0.267516
2499.22	-0.0771189
2500.6	0.073307
2501.98	0.0371552
2503.36	0.123487
2504.75	0.30117
2506.13	0.0155134
2507.51	0.484346
2508.89	0.21435
2510.27	0.605788
2511.65	-0.138122
2513.03	0.177887
2514.41	0.24929
2515.79	0.336901
2517.17	-0.324239
2518.55	-0.0514326
2519.93	0.114318
2521.3	0.0810528
2522.68	-0.0597649
2524.06	-0.0793152
2525.44	0.128961
2526.82	0.0929508
2528.19	0.0878916
2529.57	0.0992775
2530.95	0.386025
2532.32	-0.145975
2533.7	0.55437
2535.08	0.00968456
2536.45	0.330939
2537.83	0.514664
2539.2	0.317513
2540.58	0.180231
2541.95	-0.367167
2543.33	-0.200795
2544.7	0.102937
2546.08	0.620328
2547.45	-0.301869
2548.82	0.415162
2550.2	0.555915
2551.57	0.271209
2552.94	0.0764656
2554.32	0.654482
2555.69	0.199566
2557.06	-0.013093
2558.43	0.0168295
2559.8	0.0773487
2561.18	-0.104056
2562.55	0.063858
2563.92	0.459717
2565.29	0.265063
2566.66	-0.186939
2568.03	0.164351
2569.4	-0.0602455
2570.77	-0.0271988
2572.14	0.0816813
2573.51	0.0239267
2574.88	0.1027
2576.25	0.393788
2577.61	-0.0581245
2578.98	0.551072
2580.35	-0.113821
2581.72	-0.0968323
2583.09	0.0561924
2584.45	0.54243
2585.82	0.270597
2587.19	0.0292664
2588.55	0.121611
2589.92	0.168605
2591.29	-0.0270023
2592.65	-0.223095
2594.02	0.367711
2595.38	0.442124
2596.75	0.00063324
2598.11	0.31508
2599.48	0.0239754
2600.84	-0.160906
2602.21	0.138238
2603.57	0.151043
2604.93	0.119207
2606.3	0.4949
2607.66	-0.0197039
2609.02	0.143406
2610.39	0.274825
2611.75	0.14868
2613.11	0.231927
2614.47	0.118834
2615.83	0.575881
2617.19	0.342713
2618.56	0.155629
2619.92	0.43363
2621.28	0.338252
2622.64	0.557405
2624	-0.17912
2625.36	0.114906
2626.72	-0.411917
2628.08	-0.252899
2629.44	-0.079565
2630.8	0.0486307
2632.15	0.176495
2633.51	-0.126671
2634.87	-0.221601
2636.23	0.0395107
2637.59	-0.322172
2638.94	0.397628
2640.3	-0.185453
2641.66	0.0161667
2643.02	0.29167
2644.37	0.419353
2645.73	0.0304308
2647.09	-0.26994
2648.44	-0.0697985
2649.8	-0.194663
2651.15	0.282687
2652.51	0.0390987
2653.86	0.573814
2655.22	0.0823641
2656.57	0.413165
2657.93	0.11548
2659.28	0.433572
2660.63	0.0646067
2661.99	0.777293
2663.34	0.173964
2664.69	0.417026
2666.05	0.0754452
2667.4	0.447951
2668.75	0.455695
2670.1	0.623794
2671.45	-0.254572
2672.81	0.278371
2674.16	0.680694
2675.51	0.067256
2676.86	0.107909
2678.21	-0.0827742
2679.56	0.525072
2680.91	0.568508
2682.26	0.439379
2683.61	0.500133
2684.96	0.257446
2686.31	0.160246
2687.66	0.338575
2689	0.196248
2690.35	-0.238368
2691.7	-0.210434
2693.05	0.381618
2694.4	0.55147
2695.74	0.0542669
2697.09	0.0942211
2698.44	0.0631924
2699.79	0.178863
2701.13	0.122748
2702.48	0.473896
2703.83	0.304848
2705.17	0.281227
2706.52	0.417201
2707.86	0.451415
2709.21	0.267426
2710.55	0.257126
2711.9	0.580622
2713.24	0.410087
2714.58	0.123087
2715.93	0.34474
2717.27	0.100938
2718.62	0.540472
2719.96	0.135813
2721.3	0.327178
2722.65	0.809129
2723.99	0.460904
2725.33	-0.0334034
2726.67	0.679945
2728.01	0.85433
2729.35	-0.0775814
2730.7	0.212793
2732.04	0.64854
2733.38	0.0369053
2734.72	-0.312589
2736.06	0.443574
2737.4	0.57442
2738.74	0.0798693
2740.08	0.73392
2741.42	0.514857
2742.76	0.193349
2744.1	0.103723
2745.43	0.449275
2746.77	0.489095
2748.11	0.485112
2749.45	0.118454
2750.79	-0.00112438
2752.12	0.343598
2753.46	0.615876
2754.8	-0.0100813
2756.14	0.378357
2757.47	-0.1165
2758.81	0.301174
2760.14	-0.0624409
2761.48	0.225801
2762.81	0.456647
2764.15	0.355042
2765.49	0.253431
2766.82	0.00664043
2768.16	-0.0530796
2769.49	0.348475
2770.82	0.314445
2772.16	0.437716
2773.49	0.415273
2774.82	-0.285348
2776.16	0.585218
2777.49	0.0875111
2778.82	0.28148
2780.16	0.332067
2781.49	0.0526676
2782.82	-0.0397005
2784.15	-0.275431
2785.48	0.234381
2786.82	0.399995
2788.15	-0.29288
2789.48	0.360748
2790.81	0.442774
2792.14	-0.317925
2793.47	0.0515604
2794.8	-0.179329
2796.13	-0.139004
2797.46	0.143508
2798.79	0.325227
2800.12	-0.0645819
2801.44	0.0877295
2802.77	-0.0312347
2804.1	0.0491323
2805.43	0.613145
2806.76	-0.00561142
2808.08	0.24335
2809.41	0.249846
2810.74	0.21375
2812.07	-0.119613
2813.39	-0.0541697
2814.72	-0.0296984
2816.05	0.0956039
2817.37	0.052063
2818.7	0.12258
2820.02	0.263974
2821.35	-0.020339
2822.67	0.360682
2824	0.259128
2825.32	0.638803
2826.65	0.735122
2827.97	0.393109
2829.3	0.618122
2830.62	0.178325
2831.94	0.220094
2833.26	0.431652
2834.59	0.331432
2835.91	0.471253
2837.23	0.553811
2838.56	0.607531
2839.88	0.90139
2841.2	0.601416
2842.52	0.542349
2843.84	0.865623
2845.16	1.10487
2846.48	0.694741
2847.8	1.06231
2849.12	1.09073
2850.45	1.34496
2851.77	1.44314
2853.08	1.18741
2854.4	1.51065
2855.72	1.39559
2857.04	1.57721
2858.36	1.61758
2859.68	1.7709
2861	1.48626
2862.32	1.78016
2863.63	1.67832
2864.95	2.22529
2866.27	1.91146
2867.59	2.23271
2868.9	2.30051
2870.22	2.39697
2871.54	2.25396
2872.85	2.47711
2874.17	2.96703
2875.48	2.65255
2876.8	3.13954
2878.11	2.75266
2879.43	2.75965
2880.74	2.86537
2882.06	2.69095
2883.37	3.20604
2884.69	3.13226
2886	2.63808
2887.31	3.40734
2888.63	3.33384
2889.94	3.25945
2891.25	3.14204
2892.57	3.51455
2893.88	3.59233
2895.19	3.46045
2896.5	3.56758
2897.82	3.63393
2899.13	3.92532
2900.44	3.686
2901.75	3.92289
2903.06	3.72638
2904.37	3.8098
2905.68	3.47392
2906.99	4.5934
2908.3	3.9374
2909.61	4.38754
2910.92	4.50268
2912.23	4.16992
2913.54	4.63415
2914.85	4.76081
2916.16	4.59143
2917.46	4.9381
2918.77	4.98957
2920.08	5.27858
2921.39	4.93903
2922.7	5.23015
2924	5.38308
2925.31	5.27178
2926.62	4.56011
2927.92	5.28833
2929.23	5.34513
2930.54	5.20556
2931.84	5.35902
2933.15	5.02293
2934.45	4.75675
2935.76	5.14761
2937.06	5.13334
2938.37	5.17518
2939.67	4.77019
2940.98	5.00857
2942.28	4.57719
2943.58	4.09116
2944.89	4.69689
2946.19	4.52115
2947.49	3.78633
2948.8	3.41458
2950.1	4.00745
2951.4	3.89847
2952.7	3.50732
2954.01	3.85675
2955.31	3.7577
2956.61	3.58967
2957.91	3.59187
2959.21	3.75111
2960.51	3.2692
2961.81	3.43382
2963.11	3.22077
2964.41	3.59647
2965.71	3.15628
2967.01	3.30409
2968.31	3.19746
2969.61	3.35709
2970.91	3.08065
2972.21	3.35308
2973.51	3.16168
2974.81	3.3643
2976.1	2.97495
2977.4	2.96421
2978.7	2.24751
2980	2.59892
2981.29	2.76568
2982.59	2.45343
2983.89	2.36677
2985.18	2.46414
2986.48	1.97304
2987.78	1.5961
2989.07	2.03533
2990.37	1.37874
2991.66	1.63509
2992.96	1.69351
2994.25	1.51161
2995.55	1.35661
2996.84	1.29917
2998.14	1.3959
2999.43	1.28242
3000.73	0.4125
3002.02	1.16977
3003.31	1.14236
3004.61	1.08708
3005.9	0.793461
3007.19	0.779337
3008.48	0.736292
3009.77	0.356709
3011.07	0.130502
3012.36	0.323014
3013.65	0.487325
3014.94	0.177899
3016.23	0.412985
3017.52	0.175278
3018.81	0.188896
3020.1	-0.0338211
3021.4	0.104611
3022.68	0.519702
3023.97	-0.218778
3025.26	0.0137157
3026.55	-0.128435
3027.84	-0.518848
3029.13	0.295442
3030.42	-0.188498
3031.71	0.144542
3033	0.174802
3034.28	0.0812273
3035.57	-0.509483
3036.86	0.291522
3038.15	0.0286303
3039.43	0.218242
3040.72	0.0207901
3042.01	-0.177174
3043.29	-0.0456934
3044.58	0.127462
3045.87	-0.121762
3047.15	0.0281086
3048.44	-0.0789623
3049.72	0.253203
3051.01	-0.149828
3052.29	0.376054
3053.58	-0.339721
3054.86	0.403707
3056.15	0.231854
3057.43	0.140687
3058.71	0.620936
3060	0.705457
3061.28	0.531783
3062.56	0.563469
3063.84	0.447223
3065.13	0.251307
3066.41	-0.201259
3067.69	0.176641
3068.97	0.0791769
3070.26	0.199039
3071.54	-0.00845909
3072.82	0.204295
3074.1	-0.250556
3075.38	-0.0538378
3076.66	0.278144
3077.94	0.393103
3079.22	-0.155586
3080.5	-0.173216
3081.78	0.000831604
3083.06	0.108516
3084.34	0.162789
3085.62	-0.0813818
3086.9	-0.0410385
3088.18	0.283572
3089.45	0.458079
3090.73	0.157089
3092.01	0.290209
3093.29	0.0572615
3094.56	-0.107408
3095.84	-0.0276117
3097.12	0.25564
3098.4	-0.274451
3099.67	0.062788
3100.95	-0.0201387
3102.22	-0.17062
3103.5	0.126104
3104.78	0.220281
3106.05	-0.19896
3107.33	-0.129876
3108.6	0.400549
3109.88	0.0525599
3111.15	-0.0236359
3112.43	0.063549
3113.7	0.341064
3114.97	0.0359173
3116.25	0.625069
3117.52	0.0877867
3118.79	0.010375
3120.07	0.297933
3121.34	0.32675
3122.61	0.19226
3123.88	0.626652
3125.16	-0.0493441
3126.43	0.399123
3127.7	0.455605
3128.97	0.431543
3130.24	0.191646
3131.51	0.15483
3132.79	0.536813
3134.06	0.377862
3135.33	0.70448
3136.6	0.247635
3137.87	0.599757
3139.14	0.600709
3140.41	0.520771
3141.67	0.68316
3142.94	0.388822
3144.21	0.484939
3145.48	0.568258
3146.75	0.759534
3148.02	0.790652
3149.29	0.648441
