200.419	0.733477
202.234	0.758545
204.048	0.784401
205.862	0.738792
207.678	0.912506
209.491	0.161779
211.304	-0.371376
213.116	0.841654
214.928	-0.253038
216.742	0.131374
218.554	0.539412
220.365	0.197491
222.176	0.389555
223.986	-0.239218
225.798	0.65597
227.608	-0.406233
229.417	-0.164244
231.226	-0.164732
233.035	-0.0933971
234.843	0.147125
236.653	0.389391
238.46	0.731176
240.268	1.00467
242.074	0.84798
243.881	-0.223288
245.687	-0.16128
247.493	1.22629
249.298	0.630075
251.103	1.23596
252.908	0.147427
254.715	0.600849
256.519	0.30559
258.322	0.204628
260.126	-0.182804
261.929	0.757788
263.731	0.496517
265.534	-0.269079
267.336	0.82131
269.137	0.537642
270.938	-0.0608616
272.739	-0.179104
274.54	-0.0343571
276.34	0.686304
278.14	0.102316
279.939	0.406759
281.739	0.177998
283.537	0.307289
285.336	0.938526
287.134	0.511099
288.932	0.468092
290.729	-0.244421
292.526	0.578163
294.323	0.42136
296.117	0.314919
297.913	0.377645
299.709	-0.012785
301.504	0.767113
303.299	-0.627592
305.093	0.816858
306.888	0.564798
308.682	-0.164165
310.475	0.466528
312.268	-0.0684547
314.059	0.423347
315.852	-0.820177
317.644	-0.179749
319.436	-0.108334
321.227	0.0126686
323.018	0.349693
324.807	0.162857
326.597	-0.0239735
328.387	0.696503
330.177	1.29726
331.967	0.437731
333.753	0.723133
335.542	0.646261
337.331	0.35025
339.119	0.720743
340.906	0.586185
342.691	0.187397
344.478	0.720686
346.265	0.131763
348.051	0.881521
349.835	0.223272
351.621	0.472376
353.406	-0.233984
355.189	-0.202106
356.973	0.781408
358.757	0.713179
360.541	0.166811
362.323	0.523954
364.106	-0.166927
365.889	-0.358925
367.669	0.0652981
369.451	0.0130692
371.233	0.409575
373.012	0.0942516
374.793	0.204391
376.574	-0.134159
378.353	0.0947876
380.133	0.418949
381.91	0.108936
383.69	-0.127951
385.469	-0.00982285
387.245	0.227665
389.024	-0.0734539
390.8	-0.302362
392.577	0.245117
394.353	0.112532
396.129	0.121502
397.906	0.623896
399.68	-0.16573
401.456	0.523689
403.23	0.671867
405.005	0.889278
406.778	0.377439
408.552	0.357828
410.325	-0.0378857
412.099	0.434954
413.87	0.509432
415.643	0.937061
417.414	0.896801
419.187	0.177153
420.957	0.232304
422.728	0.381035
424.498	-0.0582037
426.269	1.1679
428.038	0.16239
429.806	0.212532
431.576	0.121813
433.344	0.172445
435.114	0.59919
436.881	0.486153
438.649	-0.0738735
440.416	-0.260618
442.182	0.933486
443.949	0.106697
445.715	0.144685
447.48	1.02319
449.247	0.0519648
451.011	0.133986
452.777	-0.08706
454.541	-0.0740776
456.304	0.358416
458.069	0.161208
459.832	-0.198463
461.594	-0.347238
463.358	-0.0750141
465.119	0.526194
466.881	0.59769
468.642	0.232253
470.404	0.358142
472.165	-0.35239
473.925	-0.622467
475.684	0.222463
477.445	0.318851
479.204	0.878041
480.963	0.363996
482.721	-0.638814
484.481	-0.102532
486.239	0.576837
487.996	0.0483942
489.753	-0.0340681
491.511	0.281987
493.268	0.155836
495.023	0.310502
496.779	0.278109
498.534	0.807553
500.289	0.399204
502.046	0.575899
503.8	0.962805
505.554	0.807759
507.307	0.179917
509.06	0.86638
510.813	-0.214186
512.566	0.349591
514.32	0.699119
516.072	0.528703
517.823	0.0976725
519.574	0.79368
521.325	0.265988
523.076	1.24101
524.826	0.970672
526.576	-0.284657
528.325	0.337143
530.074	1.02847
531.823	0.38337
533.572	1.11876
535.32	0.845374
537.068	1.48147
538.815	0.386266
540.562	1.29695
542.309	0.59692
544.056	0.59586
545.802	0.292685
547.547	0.918917
549.293	0.408227
551.038	0.755892
552.783	0.293557
554.527	0.895482
556.271	1.035
558.015	0.229482
559.759	0.923915
561.502	0.421118
563.245	0.219194
564.987	0.432343
566.729	0.232863
568.471	-0.332318
570.213	0.160425
571.954	0.0816097
573.693	-0.22377
575.433	-0.365608
577.173	0.275478
578.913	0.597921
580.652	0.278978
582.392	-0.154908
584.13	0.674414
585.867	0.329824
587.605	0.328003
589.343	0.163113
591.08	0.54884
592.817	0.0823994
594.552	0.144911
596.289	0.161501
598.025	0.822283
599.761	0.0561066
601.496	-0.13619
603.229	-0.00846672
604.964	0.576567
606.699	0.216768
608.433	-0.281795
610.165	-0.183269
611.898	-0.565787
613.631	0.566605
615.364	-0.340508
617.095	-0.146871
618.827	0.343565
620.559	0.213755
622.288	-0.123837
624.02	-0.188103
625.75	-0.206618
627.479	0.621351
629.209	0.219524
630.939	-0.0411625
632.667	-0.366809
634.396	-0.0744667
636.125	0.263212
637.851	-0.314916
639.58	0.357943
641.305	-0.594119
643.033	0.958038
644.76	-0.226954
646.485	0.114801
648.212	0.322681
649.936	0.035738
651.662	-0.426486
653.388	0.663183
655.111	0.12208
656.836	-0.279388
658.558	1.0979
660.283	0.834637
662.005	0.659565
663.728	0.0689945
665.45	0.571182
667.173	-0.324499
668.893	0.676504
670.616	-0.12822
672.336	0.191124
674.057	-0.378205
675.777	0.68247
677.498	0.233114
679.216	0.587042
680.937	-0.278318
682.655	0.117361
684.375	0.464031
686.092	0.462229
687.809	0.135313
689.528	0.382355
691.244	0.536081
692.962	0.366285
694.678	0.909288
696.393	0.506338
698.111	0.308781
699.825	0.615547
701.54	-0.597802
703.256	0.80887
704.97	0.444004
706.685	0.514828
708.398	0.653671
710.111	1.45615
711.826	0.470928
713.538	-0.604548
715.25	0.629704
716.961	0.217754
718.675	0.673523
720.386	0.627409
722.096	0.604445
723.808	-0.465021
725.518	0.695068
727.228	0.0129051
728.937	0.375172
730.648	-0.170818
732.357	0.937002
734.065	0.0512505
735.773	0.048872
737.483	0.769638
739.19	1.19693
740.897	2.03093
742.604	0.207733
744.31	0.235147
746.018	0.489862
747.724	0.859201
749.429	0.35339
751.134	0.367123
752.839	0.225527
754.544	0.446091
756.248	0.714191
757.953	1.61552
759.657	-0.115593
761.36	1.44448
763.063	0.345388
764.765	0.621643
766.468	0.625399
768.169	0.874905
769.871	1.59592
771.572	0.436806
773.273	1.1522
774.976	1.52753
776.676	1.40627
778.376	1.87506
780.075	1.41933
781.775	1.12366
783.474	1.75599
785.172	0.938156
786.871	1.47462
788.569	1.43998
790.266	0.585642
791.964	1.35539
793.661	0.834034
795.358	0.989902
797.054	1.12438
798.75	1.64417
800.446	1.19848
802.141	0.958101
803.834	1.88854
805.529	0.772337
807.224	1.1613
808.918	1.50306
810.612	1.46093
812.305	1.57428
813.998	0.835075
815.691	1.05932
817.384	0.298946
819.076	0.366873
820.766	1.48452
822.458	1.61918
824.149	1.10836
825.84	1.31356
827.531	1.36609
829.221	1.55669
830.909	2.13094
832.599	1.26215
834.288	0.908833
835.977	1.40438
837.666	1.23075
839.353	0.675501
841.041	1.07778
842.729	0.897224
844.416	1.60961
846.103	0.602293
847.788	1.31882
849.475	1.36886
851.161	1.87093
852.845	1.70479
854.53	1.94385
856.216	1.7115
857.901	2.87084
859.583	2.67916
861.268	2.64162
862.952	2.93904
864.633	1.99488
866.317	2.26579
868	2.28769
869.681	1.81261
871.363	0.908224
873.045	0.950762
874.725	1.76035
876.406	1.19361
878.088	0.987858
879.767	0.669031
881.447	-0.0342045
883.125	1.13515
884.805	1.19654
886.483	1.02993
888.162	0.702888
889.841	0.350985
891.518	-0.0479565
893.196	-0.245768
894.872	0.0274601
896.55	0.231054
898.225	0.949177
899.902	0.295858
901.577	0.516569
903.254	0.758181
904.928	1.22236
906.604	0.703609
908.277	-0.303324
909.952	0.43041
911.625	0.118462
913.3	0.652775
914.972	0.609392
916.646	0.144682
918.318	0.855381
919.991	0.679232
921.662	1.16797
923.333	0.70727
925.005	0.713739
926.675	1.4077
928.347	0.669271
930.017	1.16908
931.686	0.412266
933.357	0.031168
935.025	1.10624
936.693	0.682018
938.363	0.501837
940.031	0.919125
941.698	0.147284
943.367	0.58993
945.034	0.767746
946.7	-0.159889
948.368	1.18311
950.034	0.867411
951.699	0.638044
953.367	0.871998
955.031	-0.0162468
956.696	-0.0620995
958.36	0.514784
960.026	-0.139257
961.689	0.666178
963.353	-0.317785
965.016	0.39744
966.68	0.179802
968.343	0.687727
970.005	0.793892
971.666	0.655199
973.328	0.185516
974.991	1.39886
976.652	0.669163
978.312	0.804455
979.972	0.620115
981.632	0.435076
983.292	0.50239
984.953	0.544411
986.612	0.826458
988.27	0.397354
989.929	0.187675
991.587	-0.177563
993.244	0.561686
994.902	0.0861168
996.559	0.692316
998.216	0.063036
999.872	0.866467
1001.53	1.77834
1003.19	0.927721
1004.84	0.979359
1006.5	0.503294
1008.15	0.225735
1009.81	0.563528
1011.46	-0.151051
1013.11	-0.0969181
1014.77	-0.546001
1016.42	0.188194
1018.07	0.112869
1019.73	0.366972
1021.38	0.40394
1023.03	0.90173
1024.68	0.504923
1026.34	0.589968
1027.99	1.19944
1029.64	0.409554
1031.29	0.251398
1032.94	0.330889
1034.59	-0.225142
1036.24	0.481861
1037.89	0.206083
1039.53	0.344141
1041.18	1.00506
1042.83	0.928188
1044.48	1.35407
1046.13	2.06535
1047.77	1.38981
1049.42	1.043
1051.07	0.459379
1052.71	0.941452
1054.36	0.53347
1056	0.429588
1057.65	0.368685
1059.3	1.58975
1060.94	0.396374
1062.59	0.571491
1064.23	-0.689981
1065.87	0.590734
1067.52	0.456381
1069.16	1.40676
1070.8	0.7265
1072.44	0.437286
1074.09	0.235872
1075.73	0.318256
1077.37	0.663017
1079.01	0.42429
1080.65	0.772364
1082.29	0.881924
1083.93	0.534695
1085.57	0.401684
1087.21	1.13209
1088.85	0.558916
1090.49	0.13505
1092.13	0.380053
1093.77	-0.0457726
1095.41	0.263031
1097.04	0.464828
1098.68	0.690067
1100.32	0.422813
1101.95	0.567858
1103.59	0.500668
1105.23	0.564785
1106.86	0.909491
1108.5	0.952574
1110.13	0.477806
1111.77	0.19413
1113.4	0.316179
1115.04	0.135429
1116.67	0.211336
1118.31	0.265833
1119.94	0.0428467
1121.57	0.506931
1123.2	0.544287
1124.84	0.369324
1126.47	0.709261
1128.1	0.857891
1129.73	0.430387
1131.36	0.688087
1132.99	-0.165375
1134.62	0.904913
1136.25	0.264086
1137.88	0.476479
1139.51	0.622641
1141.14	0.38266
1142.77	0.0139828
1144.4	0.0937595
1146.03	-0.486319
1147.66	0.0650635
1149.28	0.0422935
1150.91	1.14926
1152.54	0.0623417
1154.16	-0.130436
1155.79	1.14474
1157.42	-0.623573
1159.04	-0.731228
1160.67	0.459637
1162.29	0.54632
1163.92	-0.0881996
1165.54	0.213665
1167.17	-0.760563
1168.79	0.368383
1170.41	0.112604
1172.04	-0.061224
1173.66	0.314232
1175.28	0.623423
1176.9	-0.149939
1178.53	0.222038
1180.15	-0.506098
1181.77	-0.089529
1183.39	0.43335
1185.01	0.00489235
1186.63	-0.677931
1188.25	0.452194
1189.87	0.417696
1191.49	0.0642529
1193.11	0.886574
1194.73	-0.331375
1196.35	0.5926
1197.96	-0.0338306
1199.58	-0.300358
1201.2	0.377672
1202.82	0.996399
1204.43	0.157999
1206.05	0.679958
1207.66	0.473831
1209.28	0.435144
1210.9	0.624596
1212.51	0.602619
1214.13	-0.00650978
1215.74	0.984762
1217.36	0.369448
1218.97	1.06279
1220.58	0.301291
1222.2	0.0194168
1223.81	0.195921
1225.42	0.188259
1227.04	0.762493
1228.65	0.842079
1230.26	0.241436
1231.87	1.37946
1233.48	0.700356
1235.1	1.90418
1236.71	0.836584
1238.32	1.61034
1239.93	1.22763
1241.53	1.48625
1243.14	0.399708
1244.75	1.35998
1246.36	1.11853
1247.97	0.916737
1249.58	2.32751
1251.19	1.44105
1252.8	1.03092
1254.4	1.34596
1256.01	0.897493
1257.62	1.42331
1259.22	1.95133
1260.83	1.34275
1262.43	1.83206
1264.04	1.47247
1265.64	2.12733
1267.25	2.20094
1268.85	1.92045
1270.46	2.07349
1272.06	0.856228
1273.66	2.62276
1275.27	1.796
1276.87	2.02481
1278.48	1.36129
1280.08	1.62898
1281.68	1.60615
1283.28	1.3973
1284.88	2.09942
1286.48	1.66558
1288.08	1.50243
1289.68	2.39485
1291.28	1.77956
1292.88	2.01137
1294.48	1.02304
1296.08	2.40805
1297.68	2.19969
1299.28	2.38059
1300.88	1.63083
1302.48	1.91002
1304.07	2.37228
1305.67	2.46226
1307.27	2.90028
1308.87	2.98803
1310.46	1.72301
1312.06	2.42662
1313.65	2.43473
1315.25	2.40373
1316.85	2.39487
1318.44	2.12182
1320.03	3.25568
1321.63	2.87876
1323.22	2.1131
1324.82	2.66724
1326.41	2.4258
1328	2.60965
1329.6	2.55099
1331.19	2.00986
1332.78	3.09011
1334.37	2.69876
1335.96	2.33105
1337.56	3.39676
1339.15	3.21039
1340.74	2.90041
1342.33	2.44622
1343.92	2.83365
1345.51	2.53553
1347.1	1.99759
1348.69	2.04466
1350.28	3.4368
1351.86	1.87152
1353.45	1.93088
1355.04	2.27232
1356.63	2.4744
1358.21	2.29608
1359.8	1.75677
1361.39	2.77288
1362.97	1.75169
1364.56	2.14648
1366.15	1.80402
1367.73	1.7819
1369.32	2.02066
1370.9	2.18213
1372.49	1.76893
1374.07	1.91489
1375.65	2.12175
1377.24	2.09003
1378.82	1.65947
1380.41	2.34145
1381.99	1.07142
1383.57	2.34529
1385.15	1.96656
1386.73	1.98468
1388.32	1.80445
1389.9	2.20113
1391.48	1.86492
1393.06	1.56998
1394.64	1.91053
1396.22	1.79456
1397.8	0.765595
1399.38	1.59831
1400.96	1.12147
1402.54	1.67343
1404.11	1.7301
1405.69	1.74803
1407.27	1.92555
1408.85	1.76854
1410.43	1.47427
1412	1.45658
1413.58	1.734
1415.16	1.61502
1416.73	2.30322
1418.31	1.88619
1419.88	1.60805
1421.46	1.94237
1423.03	2.94846
1424.61	2.2448
1426.18	2.86219
1427.76	2.31934
1429.33	3.96084
1430.9	2.92382
1432.48	2.79015
1434.05	2.85149
1435.62	3.30528
1437.2	4.27031
1438.77	3.64406
1440.34	3.4916
1441.91	4.08776
1443.48	3.36848
1445.05	3.14125
1446.62	4.21158
1448.19	3.63115
1449.76	3.58193
1451.33	3.10096
1452.9	3.21078
1454.47	4.06885
1456.04	3.92382
1457.61	3.48236
1459.17	3.76667
1460.74	3.63452
1462.31	4.08912
1463.88	3.81265
1465.44	2.64988
1467.01	2.86275
1468.58	2.62442
1470.14	3.05511
1471.71	3.21287
1473.27	2.72528
1474.84	2.70993
1476.4	2.59732
1477.97	2.73981
1479.53	2.11766
1481.1	2.33826
1482.66	2.91139
1484.22	2.83752
1485.78	2.72384
1487.35	2.86346
1488.91	1.98255
1490.47	2.54717
1492.03	2.8529
1493.59	2.29466
1495.16	2.18305
1496.72	3.1024
1498.28	1.54757
1499.84	2.05771
1501.4	1.77259
1502.96	1.89742
1504.52	1.42296
1506.08	1.91775
1507.64	1.19217
1509.19	1.02657
1510.75	0.66641
1512.31	1.69323
1513.87	0.7728
1515.42	1.54654
1516.98	0.860276
1518.54	0.522109
1520.1	1.00939
1521.65	1.07502
1523.21	-0.0259876
1524.76	0.592524
1526.32	1.01718
1527.87	1.07737
1529.43	1.15542
1530.98	1.04332
1532.54	0.666902
1534.09	0.95571
1535.64	0.734863
1537.2	1.19627
1538.75	0.978413
1540.3	0.969059
1541.85	1.29898
1543.41	0.574184
1544.96	1.56142
1546.51	0.930984
1548.06	0.601779
1549.61	1.34158
1551.16	1.55585
1552.71	1.43386
1554.26	3.66864
1555.81	2.05299
1557.36	2.10801
1558.91	1.47393
1560.46	1.03
1562.01	1.72678
1563.56	1.1569
1565.1	1.80071
1566.65	0.765335
1568.2	1.44641
1569.75	1.45501
1571.29	1.61229
1572.84	1.86243
1574.38	1.73897
1575.93	1.78355
1577.48	1.94048
1579.02	2.67687
1580.57	1.17385
1582.11	1.59522
1583.65	1.25226
1585.2	1.26537
1586.74	1.12976
1588.29	1.85465
1589.83	1.70035
1591.37	1.58263
1592.92	1.8198
1594.46	1.4947
1596	1.91889
1597.54	2.08163
1599.08	2.02062
1600.62	2.03578
1602.16	2.40835
1603.7	2.19917
1605.24	2.58983
1606.78	2.00121
1608.32	2.12326
1609.86	1.88431
1611.4	2.09247
1612.94	1.99659
1614.48	1.76719
1616.02	1.06841
1617.56	1.85202
1619.09	1.56879
1620.63	1.75648
1622.17	1.5719
1623.71	1.18284
1625.24	1.6176
1626.78	1.37724
1628.31	1.45295
1629.85	1.60111
1631.39	1.33618
1632.92	1.44442
1634.46	2.113
1635.99	2.01725
1637.52	2.16559
1639.06	2.24033
1640.59	1.81191
1642.12	2.12798
1643.66	1.60402
1645.19	2.45568
1646.72	1.96576
1648.25	1.56887
1649.79	1.52596
1651.32	2.46819
1652.85	1.98332
1654.38	2.44635
1655.91	2.96578
1657.44	2.15072
1658.97	1.81653
1660.5	2.36907
1662.03	1.71601
1663.56	1.35773
1665.09	1.90408
1666.62	1.84107
1668.15	2.03812
1669.67	1.3895
1671.2	1.05715
1672.73	1.53727
1674.26	2.07317
1675.79	1.81679
1677.31	1.39361
1678.84	1.42891
1680.36	1.26018
1681.89	1.27413
1683.42	0.883524
1684.94	1.72299
1686.47	1.49829
1687.99	1.07299
1689.51	0.795341
1691.04	0.719785
1692.56	0.937242
1694.08	0.203225
1695.61	0.548321
1697.13	0.234849
1698.65	0.852518
1700.18	0.592739
1701.7	-0.433537
1703.22	0.436104
1704.74	0.538696
1706.26	0.840525
1707.78	0.632324
1709.3	0.442502
1710.82	-0.0735407
1712.35	0.22752
1713.86	-0.142015
1715.39	1.19082
1716.9	0.441248
1718.42	-0.0723581
1719.94	0.0106716
1721.46	-0.15878
1722.98	0.41207
1724.5	-0.00723743
1726.01	0.0441856
1727.53	-0.154352
1729.05	-0.369209
1730.56	0.0642042
1732.08	-0.00602245
1733.6	0.0269051
1735.11	-0.110253
1736.63	-0.149948
1738.14	1.00943
1739.66	-0.0461159
1741.17	0.238488
1742.69	0.241568
1744.2	-0.259536
1745.71	0.0406694
1747.23	0.301803
1748.74	-0.266603
1750.25	0.398174
1751.77	0.0833712
1753.28	-0.141722
1754.79	-0.0339079
1756.3	0.209726
1757.81	-0.175066
1759.33	-0.0105572
1760.84	0.439047
1762.35	0.175529
1763.86	-0.157467
1765.37	0.466221
1766.88	0.207272
1768.39	-0.344737
1769.9	0.08459
1771.41	-0.368926
1772.91	0.203974
1774.42	-0.182546
1775.93	0.00489902
1777.44	-0.0569401
1778.95	-0.228793
1780.45	0.0372572
1781.96	0.337033
1783.47	-0.033494
1784.97	0.0410089
1786.48	-0.406027
1787.99	0.155325
1789.49	0.269396
1791	0.332371
1792.5	0.212543
1794.01	0.020853
1795.51	0.0826254
1797.01	0.0130033
1798.52	0.174577
1800.02	0.0740328
1801.52	-0.00792027
1803.03	-0.0738077
1804.53	0.171281
1806.03	0.273229
1807.54	-0.353706
1809.04	0.165243
1810.54	0.10167
1812.04	0.262345
1813.54	-0.0409174
1815.04	0.00416565
1816.54	0.00971222
1818.04	-0.0999908
1819.54	-0.227747
1821.04	0.137378
1822.54	-0.200178
1824.04	0.182659
1825.54	0.850243
1827.04	0.244635
1828.54	0.194608
1830.03	-0.0880632
1831.53	0.178441
1833.03	0.00482845
1834.53	0.0750971
1836.02	-0.00661755
1837.52	-0.0030508
1839.02	0.124391
1840.51	0.297194
1842.01	0.548806
1843.5	0.0321484
1845	0.135351
1846.49	0.30074
1847.99	0.171618
1849.48	-0.0369139
1850.98	-0.13577
1852.47	-0.0715866
1853.96	-0.0765715
1855.46	0.179851
1856.95	0.191957
1858.44	0.379479
1859.94	-0.130974
1861.43	0.187241
1862.92	0.386712
1864.41	-0.107979
1865.9	0.155221
1867.39	0.317349
1868.88	-0.0724878
1870.37	0.662018
1871.86	0.357383
1873.35	0.176713
1874.84	0.133671
1876.33	0.217582
1877.82	0.122472
1879.31	-0.0328684
1880.8	0.134082
1882.29	-0.200745
1882.58	-0.294762
1884.08	-0.242243
1885.57	0.175063
1887.06	-0.123335
1888.56	-0.369876
1890.05	-0.0243196
1891.54	0.478853
1893.04	0.54941
1894.53	-0.159739
1896.02	0.193851
1897.51	0.392188
1899	0.659978
1900.5	0.0564547
1901.99	-0.0101328
1903.48	0.216451
1904.97	0.0583954
1906.46	-0.222215
1907.95	0.0184078
1909.44	0.46796
1910.93	0.363293
1912.42	0.450797
1913.91	0.296256
1915.4	0.245921
1916.88	-0.168958
1918.37	0.212879
1919.86	0.368618
1921.35	0.402902
1922.84	0.212677
1924.32	-0.218557
1925.81	-0.319193
1927.3	-0.279878
1928.78	0.106595
1930.27	0.23332
1931.75	0.306921
1933.24	0.0667362
1934.72	-0.279702
1936.21	0.323381
1937.69	0.318955
1939.18	0.210241
1940.66	-0.398614
1942.15	0.236959
1943.63	0.735415
1945.11	0.131137
1946.6	0.406926
1948.08	-0.351814
1949.56	0.00866508
1951.04	0.401838
1952.53	-0.0670919
1954.01	-0.261083
1955.49	0.301159
1956.97	0.451104
1958.45	0.00119305
1959.93	-0.00121784
1961.41	-0.277221
1962.89	0.218548
1964.37	0.336705
1965.85	0.0772848
1967.33	0.159448
1968.81	0.018239
1970.29	0.115676
1971.77	0.485886
1973.24	0.633607
1974.72	-0.276166
1976.2	0.110897
1977.68	0.685019
1979.15	0.220252
1980.63	0.0792303
1982.11	0.142125
1983.58	0.0176601
1985.06	0.266294
1986.53	-0.622084
1988.01	0.371939
1989.48	0.281163
1990.96	-0.0623388
1992.43	0.103289
1993.91	0.185635
1995.38	0.640843
1996.86	0.640234
1998.33	-0.0866413
1999.8	0.233039
2001.27	0.382843
2002.75	-0.142843
2004.22	0.275846
2005.69	-0.282655
2007.16	0.339375
2008.64	-0.250018
2010.11	0.205829
2011.58	0.39293
2013.05	0.142425
2014.52	-0.108629
2015.99	-0.158773
2017.46	-0.294234
2018.93	0.510674
2020.4	-0.550966
2021.87	-0.201078
2023.34	0.585333
2024.8	0.0467491
2026.27	0.415966
2027.74	0.418139
2029.21	0.271494
2030.68	0.0595884
2032.14	-0.235012
2033.61	-0.545959
2035.08	0.55348
2036.54	-0.0436115
2038.01	0.248798
2039.48	0.0701857
2040.94	0.41256
2042.41	0.0662451
2043.87	0.410419
2045.34	0.0830469
2046.8	0.530873
2048.27	0.322612
2049.73	0.652945
2051.19	0.341372
2052.66	0.347798
2054.12	0.570894
2055.58	0.639689
2057.05	0.1502
2058.51	0.249737
2059.97	0.264786
2061.43	0.482466
2062.9	0.415025
2064.36	0.584661
2065.82	0.250829
2067.28	0.30525
2068.74	0.175351
2070.2	0.483504
2071.66	-0.319326
2073.12	0.308627
2074.58	0.0270185
2076.04	0.485869
2077.5	0.102214
2078.95	0.374758
2080.41	0.579263
2081.87	0.27784
2083.33	0.413224
2084.79	0.295081
2086.24	0.394667
2087.7	0.577369
2089.16	0.204736
2090.61	0.302501
2092.07	0.719032
2093.53	0.933632
2094.98	0.711596
2096.44	0.522614
2097.89	0.466914
2099.35	0.293278
2100.8	-0.0978928
2102.26	0.614681
2103.71	0.325546
2105.16	0.772877
2106.62	0.204117
2108.07	0.871346
2109.53	0.771653
2110.98	0.0544214
2112.43	0.868841
2113.88	0.747435
2115.33	0.740421
2116.79	0.432952
2118.24	0.65801
2119.69	0.851442
2121.14	0.334058
2122.59	0.715298
2124.04	0.899405
2125.49	0.75273
2126.94	1.03674
2128.39	1.18657
2129.84	0.654929
2131.29	1.06596
2132.74	0.531969
2134.19	0.991131
2135.63	0.70692
2137.08	1.30102
2138.53	0.889444
2139.98	0.72846
2141.43	0.801115
2142.87	0.825826
2144.32	1.36428
2145.77	0.777911
2147.21	0.968815
2148.66	1.73864
2150.1	1.29823
2151.55	1.17105
2152.99	1.73834
2154.44	1.5754
2155.88	1.0308
2157.33	1.67913
2158.77	1.25174
2160.21	1.6214
2161.66	1.1652
2163.1	1.6231
2164.55	1.4035
2165.99	1.36738
2167.43	1.29779
2168.87	1.94144
2170.31	1.53529
2171.76	1.3421
2173.2	1.64519
2174.64	1.68014
2176.08	1.56461
2177.52	1.39956
2178.96	1.23564
2180.4	1.655
2181.84	1.69325
2183.28	1.1004
2184.72	1.52232
2186.16	1.97777
2187.6	1.10228
2189.04	1.49134
2190.47	1.13145
2191.91	1.88649
2193.35	1.30861
2194.79	1.04512
2196.23	0.729237
2197.66	1.32592
2199.1	1.60361
2200.54	1.39762
2201.97	1.10876
2203.41	0.837861
2204.84	1.08282
2206.28	0.964354
2207.71	1.02893
2209.15	1.15939
2210.58	0.626575
2212.02	1.21773
2213.45	1.1459
2214.89	0.578507
2216.32	0.920577
2217.75	0.66994
2219.19	1.08086
2220.62	1.60808
2222.05	0.602421
2223.48	1.21094
2224.92	1.07592
2226.35	0.54371
2227.78	0.470407
2229.21	0.904585
2230.64	1.27116
2232.07	0.620687
2233.5	0.70863
2234.93	0.78108
2236.36	0.757049
2237.79	1.07809
2239.22	0.830397
2240.65	0.977191
2242.08	0.686112
2243.51	0.75557
2244.94	0.434019
2246.37	0.600837
2247.79	0.374003
2249.22	0.633394
2250.65	0.237801
2252.08	0.165991
2253.5	0.532272
2254.93	0.784616
2256.36	0.648993
2257.78	0.760252
2259.21	0.453644
2260.63	-0.157245
2262.06	0.0300713
2263.48	0.674395
2264.91	0.00345993
2266.33	0.404446
2267.76	0.21907
2269.18	0.618164
2270.6	0.0722275
2272.03	0.567462
2273.45	0.297215
2274.87	0.434215
2276.3	0.21309
2277.72	0.660329
2279.14	0.194925
2280.56	-0.0262117
2281.98	0.0622778
2283.41	0.297523
2284.83	0.141298
2286.25	0.850409
2287.67	0.0909138
2289.09	0.556545
2290.51	0.402142
2291.93	0.558587
2293.35	0.2901
2294.77	0.037714
2296.19	0.357887
2297.61	0.219735
2299.02	0.163447
2300.44	0.484334
2301.86	-0.259959
2303.28	0.209447
2304.7	0.055769
2306.11	-0.278849
2307.53	0.815276
2308.95	-0.0630074
2310.36	-0.284978
2311.78	0.249051
2313.2	0.553015
2314.61	0.396886
2316.03	0.258104
2317.44	-0.110422
2318.86	0.164134
2320.27	0.372648
2321.69	-0.129706
2323.1	-0.123249
2324.51	0.45774
2325.93	0.359001
2327.34	0.192122
2328.76	0.930834
2330.17	0.664297
2331.58	0.0371065
2332.99	0.465198
2334.41	0.31832
2335.82	0.45147
2337.23	-0.0903893
2338.64	0.320301
2340.05	0.236108
2341.46	-0.128429
2342.87	-0.000844955
2344.28	0.175741
2345.69	0.0410872
2347.1	0.218181
2348.51	-0.145086
2349.92	0.276764
2351.33	0.255608
2352.74	-0.0118446
2354.15	0.0299358
2355.56	-0.238959
2356.97	-0.344889
2358.37	-0.0765591
2359.78	0.191357
2361.19	-0.190338
2362.6	-0.311854
2364	-0.157952
2365.41	0.383806
2366.82	0.068182
2368.22	0.0446291
2369.63	-0.106534
2371.03	-0.255702
2372.44	-0.0163012
2373.84	-0.323318
2375.25	0.0625277
2376.65	0.141819
2378.06	0.0909061
2379.46	-0.347647
2380.86	0.111302
2382.27	0.230685
2383.67	0.252505
2385.07	0.529899
2386.48	0.399813
2387.88	0.271293
2389.28	-0.19813
2390.69	-0.21902
2392.09	0.685016
2393.49	0.300546
2394.89	0.172055
2396.29	0.108212
2397.69	-0.161345
2399.09	-0.191666
2400.49	0.0963898
2401.89	0.0988541
2403.29	0.64132
2404.69	0.103354
2406.09	0.437495
2407.49	0.421049
2408.89	0.0546417
2410.29	-0.581277
2411.69	-0.0280333
2413.08	-0.186823
2414.48	0.115306
2415.88	0.260998
2417.28	0.677613
2418.67	-0.171156
2420.07	-0.0695448
2421.47	0.237864
2422.86	0.481506
2424.26	0.392097
2425.65	0.318625
2427.05	-0.213788
2428.45	0.491293
2429.84	-0.118235
2431.23	0.0659838
2432.63	0.314061
2434.02	0.212206
2435.42	-0.193108
2436.81	-0.266863
2438.2	-0.151957
2439.6	-0.165833
2440.99	0.422552
2442.38	-0.0378714
2443.78	0.0411873
2445.17	-0.0069437
2446.56	0.119155
2447.95	0.308346
2449.34	0.228075
2450.73	0.179855
2452.13	0.0057888
2453.52	0.244265
2454.91	0.436333
2456.3	0.154732
2457.69	0.36394
2459.08	-0.138866
2460.47	0.164197
2461.85	0.386996
2463.24	0.513755
2464.63	0.292048
2466.02	0.954477
2467.41	0.0850515
2468.8	0.115666
2470.19	0.31945
2471.57	0.475115
2472.96	-0.157981
2474.35	-0.00417233
2475.73	0.620436
2477.12	0.0647964
2478.51	-0.474294
2479.89	0.321475
2481.28	-0.153794
2482.66	0.123587
2484.05	-0.0384312
2485.43	-0.0605907
2486.82	0.0251522
2488.2	-0.0467911
2489.59	0.659648
2490.97	-0.316729
2492.35	0.326623
2493.74	-0.287709
2495.12	-0.0458908
2496.5	-0.143827
2497.89	0.255109
2499.27	0.0811462
2500.65	-0.0930462
2502.03	0.25743
2503.42	0.235411
2504.8	0.0425625
2506.18	0.0650139
2507.56	0.0101576
2508.94	-0.0597677
2510.32	0.116746
2511.7	0.0176039
2513.08	0.0882978
2514.46	0.175342
2515.84	-0.195742
2517.22	-0.045269
2518.6	0.350357
2519.98	-0.125204
2521.36	0.33098
2522.73	0.0683765
2524.11	0.277811
2525.49	-0.474137
2526.87	-0.022234
2528.25	-0.0573788
2529.62	0.13707
2531	-0.183314
2532.38	0.82064
2533.75	0.0485659
2535.13	0.310609
2536.5	0.557358
2537.88	-0.305788
2539.25	-0.16753
2540.63	-0.288511
2542.01	-0.136667
2543.38	0.318912
2544.75	0.244505
2546.13	0.186956
2547.5	0.237215
2548.88	0.0762005
2550.25	0.324893
2551.62	0.223933
2553	0.470784
2554.37	0.412711
2555.74	0.626531
2557.11	0.763663
2558.49	-0.433785
2559.86	0.27981
2561.23	0.12991
2562.6	0.208219
2563.97	0.120604
2565.34	0.124479
2566.71	0.29537
2568.08	-0.139809
2569.45	0.410117
2570.82	-0.100867
2572.19	0.221811
2573.56	-0.0465374
2574.93	0.337058
2576.3	0.129485
2577.67	-0.0175886
2579.03	-0.149807
2580.4	0.0965834
2581.77	0.0240145
2583.14	0.481617
2584.5	0.650786
2585.87	0.198375
2587.24	0.382798
2588.6	0.188559
2589.97	-0.232835
2591.34	0.103333
2592.7	0.332739
2594.07	0.258006
2595.43	0.424231
2596.8	0.286211
2598.16	0.343938
2599.53	-0.430397
2600.89	0.00510311
2602.26	0.0179386
2603.62	0.650547
2604.98	0.287497
2606.35	0.422731
2607.71	0.0145779
2609.07	0.404428
2610.44	0.340348
2611.8	0.109037
2613.16	0.162281
2614.52	0.349605
2615.88	0.176086
2617.25	-0.191602
2618.61	-0.243298
2619.97	0.693669
2621.33	0.13496
2622.69	0.0558796
2624.05	0.0369253
2625.41	0.480495
2626.77	-0.16543
2628.13	-0.0658302
2629.49	-0.0858793
2630.85	0.176507
2632.21	0.497798
2633.56	0.462029
2634.92	0.545003
2636.28	0.242239
2637.64	-0.0748644
2639	0.112007
2640.35	-0.115438
2641.71	0.02738
2643.07	-0.0660067
2644.42	0.0919094
2645.78	0.264247
2647.14	0.199928
2648.49	0.444086
2649.85	0.274681
2651.2	0.619217
2652.56	0.272448
2653.91	-0.0292807
2655.27	0.18356
2656.62	-0.0418606
2657.98	0.11507
2659.33	0.536295
2660.68	0.299665
2662.04	0.457633
2663.39	0.395529
2664.74	-0.0470877
2666.1	0.297541
2667.45	0.466123
2668.8	0.328544
2670.15	0.584407
2671.5	-0.00264645
2672.86	0.0948219
2674.21	-0.0393505
2675.56	0.567598
2676.91	0.0141172
2678.26	0.56417
2679.61	-0.0594244
2680.96	-0.260993
2682.31	0.437883
2683.66	-0.181089
2685.01	-0.0593729
2686.36	0.338682
2687.71	0.359333
2689.06	0.320341
2690.4	0.177476
2691.75	0.177398
2693.1	-0.143831
2694.45	0.041543
2695.8	0.356942
2697.14	0.339712
2698.49	0.164946
2699.84	-0.398493
2701.18	0.473859
2702.53	0.305621
2703.88	0.196601
2705.22	0.363601
2706.57	0.356768
2707.91	0.277011
2709.26	0.225679
2710.6	0.0140781
2711.95	0.528335
2713.29	0.446934
2714.64	-0.0997438
2715.98	0.690861
2717.32	0.0563765
2718.67	0.614159
2720.01	0.371382
2721.35	0.739161
2722.7	0.291294
2724.04	0.599621
2725.38	0.5726
2726.72	0.239412
2728.06	0.706311
2729.4	0.110486
2730.75	0.780499
2732.09	0.431905
2733.43	-0.0619507
2734.77	0.288157
2736.11	0.754832
2737.45	0.523528
2738.79	0.568527
2740.13	0.467754
2741.47	0.540841
2742.81	0.0315561
2744.15	0.480776
2745.48	0.347786
2746.82	0.0110378
2748.16	-0.0934114
2749.5	0.237547
2750.84	0.495983
2752.17	0.261644
2753.51	0.187195
2754.85	-0.0173712
2756.19	0.125967
2757.52	0.197041
2758.86	-0.223761
2760.19	0.181079
2761.53	-0.296312
2762.86	-0.092927
2764.2	-0.221969
2765.54	0.603878
2766.87	-0.176865
2768.2	-0.148571
2769.54	0.0371065
2770.87	0.206288
2772.21	0.748937
2773.54	0.0917625
2774.88	0.299981
2776.21	0.147718
2777.54	-0.234056
2778.87	0.0900869
2780.21	0.241988
2781.54	0.178693
2782.87	-0.157077
2784.2	0.253266
2785.53	-0.0678797
2786.87	-0.00163841
2788.2	0.551866
2789.53	-0.239042
2790.86	0.373453
2792.19	0.128694
2793.52	0.427844
2794.85	0.34102
2796.18	0.33951
2797.51	-0.148368
2798.84	0.334285
2800.17	-0.0260448
2801.49	-0.0297718
2802.82	0.351211
2804.15	0.00468159
2805.48	-0.11417
2806.81	-0.077095
2808.13	-0.382217
2809.46	0.0658159
2810.79	-0.140007
2812.12	-0.35893
2813.44	0.14717
2814.77	-0.195956
2816.09	0.313403
2817.42	0.441396
2818.75	-0.152719
2820.07	0.146089
2821.4	-0.363559
2822.72	0.089673
2824.05	0.41444
2825.37	0.568639
2826.7	0.213039
2828.02	0.169753
2829.35	0.12721
2830.67	0.170201
2831.99	0.539023
2833.31	0.383997
2834.64	0.893786
2835.96	0.567834
2837.28	0.609151
2838.61	0.819627
2839.93	1.25599
2841.25	1.39539
2842.57	1.22433
2843.89	1.40753
2845.21	1.84607
2846.53	2.00278
2847.85	2.34373
2849.17	2.31724
2850.49	2.60127
2851.81	2.40403
2853.13	2.05064
2854.45	1.90876
2855.77	1.93622
2857.09	2.896
2858.41	2.47138
2859.73	2.89419
2861.05	2.5965
2862.36	2.80668
2863.68	3.35498
2865	3.47934
2866.32	3.40611
2867.64	3.78457
2868.95	3.82511
2870.27	3.92261
2871.59	3.94981
2872.9	4.00477
2874.22	4.25588
2875.53	3.8715
2876.85	3.78155
2878.16	4.26749
2879.48	4.47124
2880.79	4.53469
2882.11	4.43069
2883.42	4.70746
2884.74	4.66252
2886.05	4.60439
2887.36	4.53233
2888.68	4.24917
2889.99	4.73655
2891.3	5.01203
2892.62	5.17427
2893.93	4.78981
2895.24	5.84847
2896.55	4.77998
2897.86	5.74268
2899.18	5.13951
2900.49	5.53088
2901.8	5.39127
2903.11	5.89541
2904.42	5.78426
2905.73	6.16307
2907.04	6.15107
2908.35	5.79054
2909.66	5.96278
2910.97	6.63971
2912.28	7.26087
2913.59	7.16706
2914.9	7.1691
2916.21	7.21053
2917.51	7.78141
2918.82	8.05667
2920.13	7.74413
2921.44	8.3696
2922.74	7.96225
2924.05	8.59149
2925.36	8.29986
2926.67	8.45644
2927.97	8.62705
2929.28	8.89493
2930.59	8.07148
2931.89	8.32379
2933.2	8.65954
2934.5	8.68771
2935.81	8.67412
2937.11	8.3673
2938.42	8.52192
2939.72	7.97827
2941.02	8.24585
2942.33	7.46666
2943.63	7.30402
2944.94	7.12928
2946.24	7.16589
2947.54	6.30789
2948.85	6.26065
2950.15	6.30975
2951.45	5.72621
2952.75	5.98016
2954.05	5.0141
2955.36	6.02158
2956.66	5.88236
2957.96	4.92017
2959.26	5.3194
2960.56	4.39186
2961.86	4.71347
2963.16	4.93829
2964.46	4.69929
2965.76	4.21925
2967.06	4.90307
2968.36	4.26407
2969.66	4.67838
2970.96	4.67077
2972.26	4.71982
2973.56	3.95311
2974.85	4.46692
2976.15	4.38872
2977.45	4.37907
2978.75	3.83199
2980.05	3.95837
2981.34	3.49187
2982.64	3.65792
2983.94	3.55719
2985.23	3.47209
2986.53	2.99563
2987.83	2.60551
2989.12	3.42519
2990.42	2.86801
2991.71	2.63333
2993.01	2.83286
2994.3	3.17106
2995.6	2.32762
2996.89	2.53678
2998.19	2.45076
2999.48	1.63576
3000.77	1.95782
3002.07	2.40657
3003.36	1.81868
3004.65	1.60946
3005.95	1.09189
3007.24	1.1198
3008.53	1.55228
3009.82	1.00431
3011.12	0.833312
3012.41	0.410714
3013.7	0.783911
3014.99	0.613427
3016.28	0.527651
3017.57	0.470758
3018.86	0.859818
3020.15	0.914746
3021.44	0.99677
3022.73	0.202546
3024.02	0.240895
3025.31	0.444567
3026.6	0.356717
3027.89	0.311166
3029.18	0.363899
3030.47	-0.147996
3031.76	0.350601
3033.04	0.0356092
3034.33	0.0662022
3035.62	0.482289
3036.91	-0.0274906
3038.19	0.19127
3039.48	0.58608
3040.77	0.400662
3042.05	-0.101119
3043.34	-0.0807734
3044.63	0.296479
3045.91	-0.104343
3047.2	0.0857372
3048.48	-0.294889
3049.77	0.0644112
3051.05	0.343626
3052.34	-0.0857334
3053.62	0.071641
3054.91	-0.16749
3056.19	0.424094
3057.48	-0.199414
3058.76	0.675344
3060.04	0.228024
3061.33	0.121911
3062.61	0.221148
3063.89	-0.208197
3065.17	0.0170927
3066.46	-0.0821714
3067.74	-0.139462
3069.02	0.252462
3070.3	0.399302
3071.59	0.204997
3072.87	0.172313
3074.15	0.00209522
3075.43	0.360737
3076.71	-0.0147161
3077.99	0.0450878
3079.27	0.0248079
3080.55	-0.251302
3081.83	-0.0913563
3083.11	0.0837145
3084.39	0.0832977
3085.67	0.0422115
3086.94	0.285549
3088.22	0.256499
3089.5	0.199404
3090.78	0.236691
3092.06	0.15167
3093.34	-0.000941277
3094.61	-0.0310774
3095.89	-0.0879841
3097.17	0.329678
3098.44	-0.269415
3099.72	-0.0554314
3101	0.578244
3102.27	-0.183201
3103.55	-0.185729
3104.82	0.0424891
3106.1	0.0414953
3107.38	-0.513165
3108.65	0.0837717
3109.93	-0.0351925
3111.2	0.0230236
3112.47	0.122895
3113.75	0.155609
3115.02	0.0662889
3116.3	0.206807
3117.57	0.142801
3118.84	0.402881
3120.12	-0.0301838
3121.39	0.308508
3122.66	0.131239
3123.93	-0.0867691
3125.2	0.101834
3126.48	-0.236977
3127.75	0.669827
3129.02	0.359456
3130.29	0.0226889
3131.56	0.0106459
3132.83	0.403758
3134.1	0.377346
3135.37	0.404271
3136.64	0.578794
3137.91	0.347943
3139.18	-0.0851297
3140.45	0.478264
3141.72	0.247384
3142.99	0.326273
3144.26	0.12374
3145.53	0.713751
3146.8	0.378819
3148.07	0.554255
3149.33	0.676683
