200.563	1.08297
202.377	1.10937
204.194	1.13754
206.008	0.145624
207.821	1.14846
209.634	1.00768
211.449	1.42417
213.262	0.576241
215.074	0.989255
216.885	0.140711
218.699	-0.173541
220.51	0.457409
222.321	0.992202
224.131	0.560734
225.941	1.07297
227.751	0.715311
229.562	0.212635
231.371	0.675068
233.18	0.220074
234.988	0.899371
236.796	0.784626
238.603	-0.170601
240.411	0.203318
242.219	0.652873
244.026	-0.463511
245.832	0.229095
247.638	0.147495
249.443	0.158812
251.248	0.624664
253.053	0.338376
254.857	0.653116
256.661	-0.358915
258.465	0.462679
260.268	-0.159461
262.071	0.522033
263.874	-0.143291
265.678	0.0841799
267.48	-0.193986
269.282	0.346896
271.083	0.0671329
272.884	0.412642
274.684	0.587456
276.484	0.229661
278.284	-0.10634
280.084	0.277811
281.883	0.0329828
283.682	-0.74297
285.48	0.0422497
287.276	-0.303061
289.074	0.167558
290.871	0.78205
292.668	0.152793
294.465	-0.282104
296.261	-0.0451756
298.057	-0.404522
299.853	0.00152397
301.648	0.000998497
303.443	0.405184
305.237	0.664135
307.032	0.349159
308.823	0.0104113
310.617	0.554341
312.41	0.480261
314.203	0.194206
315.995	0.839352
317.788	0.105798
319.579	-0.197281
321.369	0.573411
323.16	-0.0133829
324.951	0.807588
326.741	1.36705
328.531	0.708294
330.321	0.741077
332.108	0.820005
333.897	1.23157
335.686	0.754826
337.474	0.346634
339.26	0.270621
341.048	-0.0704479
342.835	0.615544
344.622	0.584109
346.406	-0.019845
348.192	0.83403
349.978	0.303562
351.764	0.0119724
353.547	0.340091
355.332	0.284911
357.116	0.585606
358.901	0.312245
360.682	-0.248112
362.466	0.261903
364.249	0.365897
366.03	0.49246
367.812	-0.0942993
369.594	-0.159483
371.374	0.24799
373.155	0.0858221
374.936	0.396126
376.715	0.58779
378.495	-0.281278
380.273	0.242358
382.053	-0.19838
383.832	-0.260496
385.609	-0.203384
387.388	0.0901966
389.164	0.173569
390.942	0.328638
392.72	-0.525104
394.495	0.0544586
396.272	0.0943394
398.047	0.392628
399.823	0.455806
401.597	0.588798
403.372	-0.124659
405.145	0.0533848
406.92	0.394771
408.693	0.171724
410.467	-0.192508
412.239	-0.204563
414.012	0.300138
415.783	-0.578692
417.556	0.373687
419.327	0.458722
421.099	0.450191
422.869	0.511662
424.64	0.0322084
426.409	0.467031
428.18	0.64246
429.948	0.558979
431.718	0.428546
433.486	0.110769
435.253	0.121981
437.022	0.438216
438.789	0.00241852
440.558	0.691045
442.324	0.672811
444.089	0.276546
445.857	-0.28562
447.622	-0.146296
449.386	0.15586
451.153	0.574396
452.917	0.549119
454.682	0.337553
456.446	-0.386473
458.208	0.473948
459.973	0.07658
461.735	-0.644859
463.497	0.00771618
465.259	0.267874
467.022	0.322577
468.783	0.264546
470.544	-0.0470076
472.306	0.735479
474.066	0.237163
475.825	0.0853996
477.585	0.443213
479.346	0.565682
481.104	0.849875
482.862	0.38897
484.62	0.674954
486.38	0.940338
488.137	0.835845
489.894	0.61734
491.65	1.59046
493.407	1.09409
495.164	0.737396
496.92	0.824634
498.675	0.888156
500.43	0.716599
502.184	0.872425
503.939	0.980251
505.694	1.48619
507.448	1.16761
509.201	0.634848
510.954	1.06431
512.706	1.77404
514.459	1.54039
516.21	0.363853
517.962	1.02063
519.715	0.805765
521.466	0.472579
523.216	0.702662
524.966	1.37813
526.716	1.0676
528.466	0.452598
530.215	0.986292
531.964	1.05039
533.712	1.08983
535.46	0.659779
537.208	0.812704
538.955	0.729959
540.703	1.46193
542.449	0.584009
544.196	0.475336
545.942	-0.167517
547.688	0.328495
549.433	0.0586948
551.178	0.762236
552.923	0.562411
554.667	0.455666
556.412	1.5497
558.155	1.09717
559.899	0.83047
561.642	1.32459
563.385	0.55368
565.127	0.451227
566.867	0.234906
568.609	0.754492
570.35	0.0358553
572.092	0.0306625
573.832	0.279909
575.573	0.0267601
577.313	0.280477
579.053	0.0998707
580.79	0.425334
582.529	0.774186
584.268	0.248945
586.006	0.319861
587.745	0.0900822
589.482	0.755915
591.218	2.98512
592.955	2.95881
594.692	2.49514
596.428	0.789176
598.164	0.785662
599.898	0.344507
601.634	0.270322
603.369	-0.380474
605.104	0.139706
606.836	-0.00859737
608.57	0.0488853
610.304	-0.169252
612.037	-0.157162
613.769	0.291529
615.501	0.328167
617.234	0.777333
618.966	0.469671
620.696	0.0692596
622.427	-0.972824
624.159	0.682778
625.887	0.531544
627.618	-0.0746384
629.348	0.394868
631.076	0.479357
632.806	0.520867
634.535	0.0616007
636.262	0.674552
637.99	0.189474
639.716	1.02457
641.444	0.532011
643.172	0.538249
644.897	0.246924
646.624	0.161311
648.348	-0.0580225
650.075	0.61305
651.801	0.266546
653.524	0.856964
655.249	0.246863
656.972	0.868241
658.697	0.603078
660.419	0.678983
662.143	0.455945
663.865	0.640849
665.588	0.59407
667.309	0.155988
669.032	0.654555
670.752	0.628271
672.474	0.535884
674.194	-0.0343571
675.915	0.336979
677.634	1.1236
679.355	0.556767
681.073	-0.0355215
682.793	0.634329
684.511	1.18711
686.23	0.88559
687.947	0.397545
689.664	0.898442
691.382	0.569136
693.098	1.22947
694.816	0.460662
696.531	0.634901
698.247	0.876517
699.963	0.103821
701.678	0.802228
703.392	0.717145
705.108	0.53935
706.821	0.636524
708.534	0.549542
710.249	0.966214
711.962	0.992544
713.674	0.309381
715.388	0.7697
717.099	0.452913
718.81	0.410527
720.523	0.527934
722.234	0.485963
723.944	0.125587
725.654	1.19776
727.365	1.04119
729.075	1.29279
730.784	0.908565
732.492	1.20398
734.202	0.706686
735.91	0.865924
737.618	1.11565
739.325	1.68166
741.034	0.692747
742.741	0.923257
744.447	0.930136
746.153	1.00638
747.859	0.679461
749.564	1.00671
751.271	1.15564
752.976	0.788979
754.681	1.07645
756.385	0.870917
758.088	1.11755
759.792	1.00588
761.495	0.670026
763.2	0.966114
764.902	1.46548
766.604	1.10535
768.306	1.37538
770.008	0.172947
771.709	1.56821
773.41	1.80844
775.11	1.39236
776.811	1.47452
778.51	1.67149
780.21	1.37298
781.909	1.25672
783.608	1.59315
785.307	2.08667
787.005	2.55436
788.703	1.47859
790.401	2.23144
792.098	1.64619
793.795	1.33083
795.492	1.55714
797.188	1.06312
798.884	1.54039
800.58	0.556455
802.276	1.48751
803.971	1.51909
805.665	1.2357
807.36	1.64799
809.054	1.20496
810.748	1.92787
812.441	2.13276
814.135	1.84367
815.826	1.37568
817.518	2.45169
819.21	1.78288
820.902	2.36584
822.594	1.98903
824.285	1.52472
825.976	1.66455
827.665	2.25262
829.355	1.90884
831.045	1.97008
832.735	1.81238
834.424	2.03629
836.111	2.12793
837.8	1.41588
839.488	2.53253
841.177	2.06194
842.864	2.19254
844.55	2.45668
846.237	1.22438
847.924	1.80487
849.61	2.18792
851.295	2.57495
852.98	1.4187
854.666	1.15882
856.349	1.27999
858.034	2.27684
859.719	1.0903
861.403	1.27327
863.085	1.72468
864.769	1.25075
866.452	1.22619
868.133	1.291
869.816	1.15225
871.498	1.89281
873.179	1.7309
874.86	1.88475
876.54	1.79043
878.221	1.42527
879.902	1.35332
881.58	1.25828
883.26	1.32029
884.938	1.71943
886.618	1.75543
888.297	1.31547
889.974	1.32477
891.653	1.24194
893.329	1.9006
895.007	1.49908
896.683	2.31067
898.36	1.48001
900.035	1.07605
901.712	0.89599
903.387	1.16318
905.063	1.80934
906.737	1.5392
908.412	1.40433
910.085	1.60502
911.76	1.29486
913.433	1.16405
915.107	1.03394
916.779	0.948508
918.452	1.5058
920.124	1.59732
921.797	1.18068
923.467	0.788432
925.138	1.12784
926.81	1.04983
928.48	0.554775
930.151	2.26822
931.82	1.44473
933.489	0.66597
935.16	0.902285
936.828	1.24943
938.496	1.26693
940.165	0.205329
941.833	1.32898
943.5	0.799128
945.168	1.39442
946.834	1.10536
948.5	1.43185
950.168	1.4467
951.834	0.378944
953.499	1.40722
955.163	1.5111
956.83	0.64856
958.494	0.738478
960.158	0.964557
961.821	0.53023
963.487	1.17821
965.15	0.740858
966.812	0.542959
968.474	-0.123268
970.138	-0.261031
971.8	0.131119
973.461	0.722825
975.123	0.564521
976.783	0.674
978.446	0.542134
980.106	0.665503
981.766	0.788374
983.425	0.964808
985.084	0.917259
986.743	1.37599
988.402	1.67712
990.06	0.649564
991.72	0.439962
993.378	0.716328
995.035	0.484836
996.692	0.231717
998.349	0.574157
1000.01	0.629441
1001.66	1.76315
1003.32	1.42039
1004.97	0.637874
1006.63	0.493593
1008.28	1.11825
1009.94	0.820891
1011.59	0.743824
1013.25	0.667481
1014.9	0.547959
1016.55	0.451024
1018.21	-0.104585
1019.86	0.587986
1021.51	0.931619
1023.16	0.861276
1024.81	0.595566
1026.47	0.724025
1028.12	0.874301
1029.77	1.08919
1031.42	0.734486
1033.07	0.814491
1034.72	1.50307
1036.37	1.25141
1038.02	1.15154
1039.67	1.66123
1041.31	1.5404
1042.96	0.682577
1044.61	1.21854
1046.26	1.06177
1047.91	0.907673
1049.55	1.4725
1051.2	1.66993
1052.84	1.4775
1054.49	1.43762
1056.14	1.74547
1057.78	1.33564
1059.43	1.09894
1061.07	1.2092
1062.72	0.970483
1064.36	1.49153
1066	0.750107
1067.65	1.26809
1069.29	0.937122
1070.93	0.453568
1072.58	0.881964
1074.22	0.768289
1075.86	1.04655
1077.5	1.00124
1079.14	0.892581
1080.78	0.676519
1082.42	0.482097
1084.06	0.893581
1085.7	1.41107
1087.34	0.343691
1088.98	0.682175
1090.62	0.714982
1092.26	0.724562
1093.9	0.99263
1095.54	1.15265
1097.17	1.37822
1098.81	1.13155
1100.45	0.887668
1102.09	0.49603
1103.72	0.580291
1105.36	0.773796
1106.99	0.924981
1108.63	0.710092
1110.27	1.00978
1111.9	0.619377
1113.53	0.441978
1115.17	0.585186
1116.8	0.641644
1118.43	0.676804
1120.07	1.11992
1121.7	0.750294
1123.33	0.0828543
1124.97	0.957644
1126.6	0.891989
1128.23	0.955751
1129.86	1.59777
1131.49	0.89358
1133.12	1.28016
1134.75	0.106055
1136.38	1.13273
1138.01	0.832779
1139.64	-0.130732
1141.27	0.271626
1142.9	-0.116524
1144.53	0.519651
1146.16	-0.421323
1147.78	0.0674686
1149.41	0.322734
1151.04	0.3868
1152.67	-0.592609
1154.29	-0.145596
1155.92	-0.146264
1157.54	-0.189605
1159.17	0.299319
1160.8	0.619047
1162.42	0.0684557
1164.05	0.49728
1165.67	0.650341
1167.29	-0.196292
1168.92	-0.00249958
1170.54	-0.193543
1172.16	0.441586
1173.79	-0.369964
1175.41	-0.0151243
1177.03	0.529342
1178.65	-0.324672
1180.28	-0.0758629
1181.9	0.406468
1183.52	0.360576
1185.14	0.145699
1186.76	-0.386898
1188.38	0.302865
1190	-0.338999
1191.62	-0.0345602
1193.24	-0.321407
1194.86	0.56717
1196.47	-0.286612
1198.09	0.119337
1199.71	0.568446
1201.33	0.831793
1202.95	0.639047
1204.56	-0.447371
1206.18	0.13874
1207.8	0.559407
1209.41	0.12504
1211.03	0.0651035
1212.64	0.628429
1214.26	0.771532
1215.87	0.72406
1217.49	0.778299
1219.1	0.332426
1220.71	0.323297
1222.33	0.792095
1223.94	0.743773
1225.55	0.594058
1227.16	0.653482
1228.78	0.797439
1230.39	0.756902
1232	0.593979
1233.61	0.701407
1235.22	0.955154
1236.83	1.39658
1238.44	1.32269
1240.05	1.29103
1241.66	0.94933
1243.27	1.74487
1244.88	1.58778
1246.49	1.243
1248.1	1.8487
1249.71	1.27394
1251.32	1.77467
1252.92	1.82057
1254.53	0.936751
1256.14	1.27479
1257.74	1.57321
1259.35	1.62504
1260.96	1.61599
1262.56	1.54547
1264.17	1.35059
1265.77	1.75599
1267.38	1.91185
1268.98	1.67252
1270.59	2.55134
1272.19	2.26759
1273.79	2.23118
1275.4	1.94462
1277	2.50648
1278.6	2.15538
1280.21	1.65876
1281.81	2.17629
1283.41	2.07294
1285.01	1.55691
1286.61	2.07611
1288.21	2.14183
1289.81	2.06415
1291.41	2.4831
1293.01	2.67452
1294.61	3.03002
1296.21	2.63995
1297.81	3.15607
1299.41	3.2153
1301.01	2.32391
1302.6	1.92652
1304.2	2.31049
1305.8	2.58993
1307.4	2.4368
1308.99	2.18104
1310.59	2.37668
1312.19	2.90001
1313.78	2.56451
1315.38	1.802
1316.97	2.83871
1318.57	2.97696
1320.16	2.60514
1321.76	1.76409
1323.35	2.79446
1324.94	1.90959
1326.54	2.2632
1328.13	2.71651
1329.72	1.97506
1331.32	2.61281
1332.91	1.89882
1334.5	2.78409
1336.09	2.54056
1337.68	1.95515
1339.27	2.45782
1340.87	1.93022
1342.45	2.32614
1344.04	1.77383
1345.64	1.84368
1347.22	2.07413
1348.81	1.82577
1350.4	1.92148
1351.99	1.48056
1353.58	2.08241
1355.17	2.12599
1356.75	2.44974
1358.34	1.55416
1359.93	2.11555
1361.51	1.57727
1363.1	1.45734
1364.69	1.39692
1366.27	1.61586
1367.86	1.67639
1369.44	1.67883
1371.03	2.0016
1372.61	1.21188
1374.2	1.57781
1375.78	1.88491
1377.37	1.53546
1378.95	1.32457
1380.53	2.50511
1382.11	1.45544
1383.7	1.97556
1385.28	1.53987
1386.86	1.73972
1388.44	2.05877
1390.02	0.492846
1391.6	1.3103
1393.19	0.97773
1394.77	1.93494
1396.35	1.206
1397.93	2.18121
1399.51	1.68806
1401.08	1.29309
1402.66	2.30312
1404.24	1.74922
1405.82	1.67118
1407.4	1.23862
1408.97	1.14338
1410.55	0.910584
1412.13	1.62564
1413.71	1.51036
1415.28	1.59125
1416.86	1.3357
1418.43	2.26248
1420.01	1.96748
1421.59	1.91056
1423.16	2.11175
1424.73	2.01991
1426.31	2.5596
1427.88	2.19461
1429.46	2.43935
1431.03	2.62372
1432.6	3.14091
1434.18	3.59746
1435.75	4.07278
1437.32	3.8797
1438.89	3.74684
1440.46	3.57625
1442.04	3.17127
1443.61	4.4968
1445.18	3.24829
1446.75	3.63132
1448.32	4.03428
1449.89	4.28052
1451.46	4.37024
1453.03	3.39881
1454.6	3.92251
1456.16	4.58408
1457.73	4.28052
1459.3	3.81746
1460.87	3.60759
1462.44	3.29666
1464	3.06221
1465.57	3.19987
1467.14	1.94226
1468.7	2.33567
1470.27	2.04313
1471.83	2.49779
1473.4	2.01227
1474.96	2.54768
1476.53	2.20119
1478.09	1.93333
1479.66	2.29271
1481.22	1.39749
1482.78	1.79576
1484.35	1.78226
1485.91	0.945473
1487.47	1.4202
1489.04	1.34466
1490.6	1.40368
1492.16	1.20556
1493.72	1.59084
1495.28	1.48521
1496.84	0.988794
1498.4	0.551754
1499.96	1.2437
1501.52	0.712493
1503.08	1.59954
1504.64	1.03297
1506.2	0.719379
1507.76	1.1017
1509.32	0.689855
1510.88	0.68265
1512.44	0.115543
1513.99	0.530941
1515.55	0.964728
1517.11	0.400031
1518.66	0.508725
1520.22	1.19255
1521.78	0.669733
1523.33	0.204933
1524.89	0.637412
1526.44	1.12474
1528	0.276818
1529.55	0.45727
1531.11	0.181567
1532.66	0.551889
1534.21	0.846638
1535.77	1.25547
1537.32	0.644435
1538.87	0.205384
1540.43	0.785828
1541.98	0.611767
1543.53	1.05892
1545.08	0.752929
1546.63	1.02948
1548.18	4.26958
1549.74	3.84822
1551.29	3.46547
1552.84	1.28858
1554.39	0.574664
1555.94	1.15223
1557.48	0.891426
1559.03	0.838576
1560.58	0.657539
1562.13	0.851583
1563.68	1.7746
1565.23	1.13031
1566.78	1.27383
1568.32	1.20618
1569.87	1.383
1571.42	0.682008
1572.96	1.49266
1574.51	1.38844
1576.05	1.54559
1577.6	1.64702
1579.14	1.17024
1580.69	1.06759
1582.24	1.6009
1583.78	1.64981
1585.32	1.17642
1586.87	1.13326
1588.41	1.25854
1589.95	1.55204
1591.5	1.26488
1593.04	1.81955
1594.58	2.05576
1596.12	1.41157
1597.67	1.57345
1599.21	1.68004
1600.75	1.58126
1602.29	1.98971
1603.83	1.79757
1605.37	1.66067
1606.91	1.72857
1608.45	1.4368
1609.99	2.21334
1611.53	1.70886
1613.07	0.86423
1614.6	0.713389
1616.14	1.36873
1617.68	0.936751
1619.22	1.36847
1620.75	1.74554
1622.29	1.88074
1623.83	1.7361
1625.37	1.89097
1626.9	0.884426
1628.44	1.59798
1629.97	2.40265
1631.51	1.28017
1633.04	1.26049
1634.58	1.74523
1636.11	2.17454
1637.65	1.33652
1639.18	2.71839
1640.72	2.32882
1642.25	2.23673
1643.78	1.84531
1645.31	2.17846
1646.85	2.17526
1648.38	2.09737
1649.91	2.79998
1651.44	2.90924
1652.97	2.98302
1654.5	2.52062
1656.03	2.50416
1657.56	2.48757
1659.1	2.67361
1660.62	2.59852
1662.15	2.22555
1663.68	1.7592
1665.21	1.81003
1666.74	2.08273
1668.27	2.55934
1669.8	1.65502
1671.32	2.39321
1672.85	1.9535
1674.38	2.0302
1675.91	1.81193
1677.43	1.5191
1678.96	1.42745
1680.49	1.38971
1682.01	1.24083
1683.54	1.31208
1685.06	1.49342
1686.59	1.06983
1688.11	1.27044
1689.64	0.921759
1691.16	1.17791
1692.68	0.775093
1694.21	0.683515
1695.73	1.08539
1697.25	1.19417
1698.78	0.626728
1700.3	1.13612
1701.82	0.276411
1703.34	0.1826
1704.86	0.39782
1706.39	0.430199
1707.91	0.91663
1709.43	0.675622
1710.95	0.435123
1712.47	0.249637
1713.99	0.535664
1715.51	0.35064
1717.02	0.165819
1718.54	0.541348
1720.06	0.843929
1721.58	0.731268
1723.1	-0.245846
1724.62	0.166813
1726.13	0.508519
1727.65	0.131539
1729.17	0.295775
1730.68	0.888574
1732.2	-0.0381193
1733.72	-0.0721369
1735.23	0.617386
1736.75	0.179095
1738.26	0.419489
1739.78	0.370389
1741.29	0.00349617
1742.81	-0.0720854
1744.32	-0.158101
1745.84	0.349044
1747.35	0.185766
1748.86	-0.117999
1750.37	-0.403163
1751.89	0.273712
1753.4	-0.0835724
1754.91	-0.144464
1756.42	0.470734
1757.93	0.323322
1759.45	-0.162286
1760.96	-0.0538578
1762.47	-0.228872
1763.98	0.0732517
1765.49	0.0999756
1767	-0.407827
1768.51	0.20555
1770.02	0.137205
1771.53	-0.0228348
1773.03	0.187749
1774.54	0.0554581
1776.05	-0.0964642
1777.56	-0.286441
1779.07	0.214446
1780.57	-0.381967
1782.08	0.124173
1783.59	0.0458698
1785.09	0.455629
1786.6	0.0613079
1788.11	-0.150182
1789.61	0.114838
1791.12	-0.242007
1792.62	-0.13607
1794.13	-0.0183554
1795.63	0.113954
1797.13	0.127945
1798.64	-0.111125
1800.14	0.146103
1801.65	-0.0422277
1803.15	-0.310743
1804.65	0.25205
1806.15	0.17497
1807.66	0.0179482
1809.16	0.0158157
1810.66	0.27165
1812.16	-0.15664
1813.66	0.0720387
1815.16	0.130428
1816.66	0.0303335
1818.16	0.208887
1819.66	0.00504303
1821.16	-0.102769
1822.66	0.137724
1824.16	0.167045
1825.66	-0.122215
1827.16	0.113222
1828.66	0.0813046
1830.16	0.437129
1831.65	-0.00032711
1833.15	0.326683
1834.65	0.0723534
1836.14	0.109253
1837.64	0.417087
1839.14	0.41929
1840.63	-0.211218
1842.13	0.0342121
1843.62	-0.0291357
1845.12	0.452823
1846.61	0.255653
1848.11	0.335498
1849.6	0.246097
1851.1	-0.0554171
1852.59	0.368151
1854.08	0.585908
1855.58	0.0898075
1857.07	-0.0883226
1858.56	-0.135105
1860.05	0.469272
1861.55	0.178973
1863.04	0.0109491
1864.53	0.129455
1866.02	-0.596488
1867.51	-0.249442
1869	0.583706
1870.49	0.11153
1871.98	0.264693
1873.47	-0.137591
1874.96	0.196151
1876.45	0.231756
1877.94	-0.00929642
1879.43	0.233959
1880.92	0.213407
1882.41	0.264127
1882.51	0.267959
1884	0.163267
1885.5	-0.360488
1886.99	-0.0138884
1888.48	0.0532303
1889.98	0.451046
1891.47	-0.0720816
1892.96	0.554477
1894.46	-0.0165796
1895.95	0.2661
1897.44	-0.0240593
1898.93	0.311769
1900.42	-0.658257
1901.91	0.35305
1903.41	0.266283
1904.9	-0.291484
1906.39	0.12334
1907.88	0.138282
1909.37	0.483689
1910.86	0.0838261
1912.35	0.101565
1913.83	0.171984
1915.32	-0.156347
1916.81	-0.0688429
1918.3	0.243324
1919.79	0.55477
1921.27	0.311625
1922.76	0.398096
1924.25	0.433618
1925.74	0.0376883
1927.22	0.820223
1928.71	0.149282
1930.19	0.0149555
1931.68	0.589704
1933.17	-0.135968
1934.65	0.365669
1936.14	-0.0520411
1937.62	0.393862
1939.11	-0.491825
1940.59	-0.167324
1942.07	0.192245
1943.56	0.000674248
1945.04	-0.138029
1946.52	0.223716
1948.01	-0.121599
1949.49	-0.122967
1950.97	0.0639391
1952.45	0.524879
1953.93	-0.0987873
1955.42	0.309308
1956.9	0.0475798
1958.38	0.233176
1959.86	0.144958
1961.34	0.160335
1962.82	0.124512
1964.3	-0.271281
1965.78	0.154709
1967.26	0.254274
1968.74	0.318742
1970.21	-0.0448875
1971.69	0.0357761
1973.17	-0.412863
1974.65	-0.400244
1976.13	0.328401
1977.6	-0.408559
1979.08	0.0981312
1980.56	0.127834
1982.03	0.00431442
1983.51	0.339252
1984.99	0.0283089
1986.46	0.531642
1987.94	-0.169065
1989.41	0.215429
1990.89	-0.313684
1992.36	-0.0292768
1993.84	-0.318818
1995.31	0.356037
1996.78	-0.252985
1998.26	-0.47322
1999.73	0.52175
2001.2	0.131463
2002.68	-0.326502
2004.15	0.159877
2005.62	-0.213196
2007.09	0.139135
2008.56	0.172373
2010.04	0.0213985
2011.51	0.190907
2012.98	0.612904
2014.45	-0.227848
2015.92	0.159063
2017.39	0.0906086
2018.86	-0.113219
2020.33	0.0857782
2021.8	0.284398
2023.26	0.264983
2024.73	0.212932
2026.2	-0.0390196
2027.67	-0.289267
2029.14	0.300779
2030.61	0.0872622
2032.07	0.109674
2033.54	0.451624
2035.01	0.122066
2036.47	0.363014
2037.94	0.166597
2039.4	0.658704
2040.87	0.377677
2042.33	0.450052
2043.8	0.338326
2045.27	-0.00802898
2046.73	0.151217
2048.19	-0.160677
2049.66	0.0323524
2051.12	0.561652
2052.59	0.0269995
2054.05	0.0467186
2055.51	0.0981894
2056.97	0.367219
2058.44	0.163303
2059.9	0.127795
2061.36	0.0422564
2062.82	0.428997
2064.28	0.00890541
2065.74	0.364158
2067.21	-0.00327492
2068.67	0.404127
2070.13	0.424825
2071.59	0.46244
2073.05	0.415711
2074.51	0.469699
2075.96	0.152824
2077.42	0.49229
2078.88	0.191369
2080.34	-0.0595198
2081.8	0.732878
2083.26	0.463749
2084.72	0.0761003
2086.17	0.528957
2087.63	0.476302
2089.09	0.187922
2090.54	0.537893
2092	0.450912
2093.45	0.0283318
2094.91	0.64568
2096.37	0.524291
2097.82	0.603269
2099.28	0.0119591
2100.73	-0.194172
2102.19	0.235223
2103.64	0.130568
2105.09	0.478087
2106.55	0.426492
2108	0.226041
2109.45	0.42628
2110.91	-0.0576544
2112.36	0.240489
2113.81	0.353234
2115.26	0.73023
2116.72	0.739786
2118.17	0.118497
2119.62	0.163568
2121.07	0.67522
2122.52	0.558485
2123.97	0.542974
2125.42	0.760362
2126.87	0.795051
2128.32	0.596506
2129.77	0.661628
2131.22	1.03988
2132.67	0.853986
2134.11	0.552456
2135.56	0.582826
2137.01	0.862751
2138.46	1.0951
2139.91	0.800804
2141.35	0.756275
2142.8	0.448507
2144.25	1.10074
2145.7	0.876526
2147.14	1.01604
2148.59	0.740869
2150.03	1.47511
2151.48	1.37998
2152.92	1.26709
2154.37	1.76626
2155.81	1.07196
2157.26	1.13988
2158.7	1.32456
2160.15	1.32858
2161.59	1.16895
2163.03	1.37609
2164.47	1.5521
2165.92	0.749849
2167.36	1.22564
2168.8	0.902876
2170.24	1.426
2171.69	1.61427
2173.13	1.76695
2174.57	0.736947
2176.01	1.60246
2177.45	1.70302
2178.89	0.873442
2180.33	0.992701
2181.77	1.29587
2183.21	1.59981
2184.65	1.60481
2186.09	1.4269
2187.53	1.41535
2188.97	1.80326
2190.4	1.79181
2191.84	1.59689
2193.28	1.26785
2194.72	1.40342
2196.16	1.45359
2197.59	1.21851
2199.03	0.865268
2200.47	1.19252
2201.9	0.921418
2203.34	1.13258
2204.77	1.04627
2206.21	0.729236
2207.64	0.462787
2209.08	1.02435
2210.51	0.922454
2211.95	1.28266
2213.38	1.11256
2214.82	1.7684
2216.25	0.674394
2217.68	0.95226
2219.12	0.736574
2220.55	0.555002
2221.98	0.670359
2223.41	0.982552
2224.85	0.765944
2226.28	0.728647
2227.71	0.590873
2229.14	0.451896
2230.57	0.968547
2232	0.467811
2233.43	0.737823
2234.86	1.08986
2236.29	0.495076
2237.72	0.490726
2239.15	0.798521
2240.58	0.113367
2242.01	0.278568
2243.44	0.379889
2244.87	0.595818
2246.29	0.240139
2247.72	0.535147
2249.15	0.74605
2250.58	0.416569
2252.01	0.459977
2253.43	0.583656
2254.86	0.707433
2256.29	0.589114
2257.71	0.0192719
2259.14	0.491181
2260.56	0.02528
2261.99	0.0974159
2263.41	0.609873
2264.84	0.554528
2266.26	0.271067
2267.69	0.507016
2269.11	0.400363
2270.53	0.195078
2271.96	0.591578
2273.38	0.157454
2274.8	0.195631
2276.23	0.201467
2277.65	0.321585
2279.07	0.00167561
2280.49	0.317496
2281.91	0.225571
2283.34	-0.176469
2284.76	0.449404
2286.18	0.357628
2287.6	0.249879
2289.02	0.469214
2290.44	0.313349
2291.86	0.582694
2293.28	0.116479
2294.7	0.304284
2296.12	0.197522
2297.54	0.123362
2298.96	0.163866
2300.37	-0.155971
2301.79	-0.0330667
2303.21	0.0410461
2304.63	-0.19647
2306.04	0.288308
2307.46	-0.0647936
2308.88	0.238733
2310.3	-0.148806
2311.71	0.482804
2313.13	0.308511
2314.54	0.414355
2315.96	0.0270977
2317.37	0.546453
2318.79	0.226172
2320.2	0.416588
2321.62	0.193451
2323.03	-0.0153799
2324.45	0.202342
2325.86	0.747469
2327.27	0.844979
2328.69	0.941473
2330.1	0.280386
2331.51	0.0160713
2332.92	0.0164995
2334.34	0.00140381
2335.75	0.430758
2337.16	-0.0451326
2338.57	0.333127
2339.98	0.183958
2341.39	0.575828
2342.8	0.342992
2344.21	0.0284224
2345.63	0.173456
2347.04	0.0401812
2348.45	-0.0765219
2349.85	-0.160766
2351.26	0.162948
2352.67	0.19108
2354.08	0.0712671
2355.49	-0.0164614
2356.9	-0.0880852
2358.3	0.214488
2359.71	-0.165849
2361.12	0.379856
2362.53	0.1948
2363.93	-0.0385628
2365.34	0.424177
2366.75	0.611403
2368.15	0.0239544
2369.56	0.0194292
2370.97	0.129176
2372.37	0.15969
2373.77	-0.0180569
2375.18	0.335958
2376.59	0.142228
2377.99	0.333446
2379.39	0.29774
2380.8	0.115766
2382.2	0.0608921
2383.6	0.101244
2385.01	0.189219
2386.41	0.349299
2387.81	0.254663
2389.21	0.121679
2390.62	0.165546
2392.02	-0.0440884
2393.42	0.288612
2394.82	0.112967
2396.22	0.240305
2397.62	0.352363
2399.02	0.321999
2400.42	0.0697975
2401.82	0.389832
2403.22	-0.115999
2404.62	0.0924683
2406.02	0.411022
2407.42	0.141224
2408.82	0.441734
2410.22	0.725702
2411.62	-0.00434017
2413.01	0.470731
2414.41	-0.161359
2415.81	0.142347
2417.21	0.47916
2418.6	0.532059
2420	-0.000583649
2421.4	0.147584
2422.79	0.263723
2424.19	0.347898
2425.59	0.558913
2426.98	0.627921
2428.38	0.238195
2429.77	0.150577
2431.17	0.396852
2432.56	0.119678
2433.95	-0.333019
2435.35	0.563152
2436.74	0.520602
2438.14	0.333326
2439.53	0.128765
2440.92	-0.108459
2442.31	0.241233
2443.71	0.209505
2445.1	0.272773
2446.49	0.304097
2447.88	0.0182953
2449.27	0.493054
2450.67	0.255142
2452.06	0.144614
2453.45	0.367281
2454.84	0.242746
2456.23	0.182287
2457.62	0.201276
2459.01	-0.00133896
2460.4	-0.0305634
2461.79	0.524351
2463.18	0.651307
2464.57	0.445707
2465.95	-0.0443363
2467.34	0.160495
2468.73	0.238853
2470.12	0.364228
2471.5	0.441681
2472.89	-0.20636
2474.28	0.184615
2475.67	0.0709381
2477.05	0.0513315
2478.44	-0.392331
2479.82	-0.050518
2481.21	-0.273543
2482.6	0.224417
2483.98	0.376662
2485.37	-0.00409317
2486.75	0.067771
2488.13	0.372347
2489.52	0.503898
2490.9	0.0123634
2492.29	-0.197581
2493.67	0.261754
2495.05	0.504423
2496.44	0.205579
2497.82	-0.01443
2499.2	0.199553
2500.58	0.165399
2501.97	0.331362
2503.35	-0.0444708
2504.73	0.073061
2506.11	0.143438
2507.49	0.444241
2508.87	0.129553
2510.25	0.107786
2511.63	0.117437
2513.01	-0.255321
2514.39	0.0779982
2515.77	0.136248
2517.15	-0.00360298
2518.53	-0.0204096
2519.91	-0.29679
2521.29	0.419574
2522.67	-0.0409002
2524.05	0.123693
2525.42	0.287253
2526.8	0.160913
2528.18	0.293865
2529.55	0.0780783
2530.93	-0.515759
2532.31	-0.256574
2533.69	-0.239165
2535.06	-0.0387049
2536.44	0.10094
2537.81	0.148706
2539.19	0.165048
2540.56	0.134923
2541.94	0.256183
2543.31	0.05902
2544.69	-0.288838
2546.06	0.138224
2547.44	0.0205116
2548.81	0.0857258
2550.18	-0.15243
2551.56	0.0944767
2552.93	0.385959
2554.3	0.145147
2555.67	-0.0662336
2557.04	0.101076
2558.42	0.05585
2559.79	0.283782
2561.16	-0.0182896
2562.53	0.544215
2563.9	0.440502
2565.27	-0.0567331
2566.64	0.249452
2568.01	0.237498
2569.38	0.195227
2570.75	0.319669
2572.12	0.0348978
2573.49	-0.0224485
2574.86	0.541839
2576.23	0.272385
2577.6	0.0786076
2578.97	0.627544
2580.33	0.17534
2581.7	0.344365
2583.07	-0.199643
2584.44	0.666056
2585.8	0.394631
2587.17	0.36589
2588.54	0.549526
2589.9	-0.14571
2591.27	-0.0378551
2592.64	0.357363
2594	0.0698786
2595.37	0.220607
2596.73	0.491171
2598.1	0.110057
2599.46	0.363952
2600.83	0.134115
2602.19	-0.0496368
2603.55	0.250539
2604.92	0.158737
2606.28	0.278393
2607.64	0.0960302
2609.01	0.410275
2610.37	0.406527
2611.73	-0.0652523
2613.09	0.184279
2614.46	0.0569305
2615.82	0.0345879
2617.18	0.282347
2618.54	0.200786
2619.9	-0.149158
2621.26	0.219943
2622.62	0.29023
2623.98	0.256142
2625.34	-0.0913439
2626.7	0.530656
2628.06	-0.428142
2629.42	0.132931
2630.78	-0.0658875
2632.14	-0.0712624
2633.5	0.294654
2634.86	0.00688457
2636.21	0.164441
2637.57	0.232804
2638.93	-0.113478
2640.29	0.473003
2641.64	0.275328
2643	-0.158134
2644.36	0.265422
2645.71	0.31948
2647.07	0.24034
2648.43	0.337314
2649.78	0.241903
2651.14	-0.0893097
2652.49	0.284724
2653.85	0.144724
2655.2	0.240297
2656.56	-0.0146217
2657.91	0.551683
2659.26	0.065052
2660.62	0.427402
2661.97	0.321575
2663.32	-0.0331001
2664.68	0.327009
2666.03	0.277371
2667.38	0.708192
2668.74	0.0460682
2670.09	0.316491
2671.44	0.0490942
2672.79	0.407522
2674.14	0.359581
2675.49	0.123622
2676.84	0.338243
2678.19	-0.0267324
2679.54	0.479366
2680.89	0.363006
2682.24	0.146468
2683.59	0.105169
2684.94	0.0213556
2686.29	0.257201
2687.64	0.130167
2688.99	0.45184
2690.34	0.350699
2691.69	0.378189
2693.03	0.215356
2694.38	0.240099
2695.73	0.641401
2697.08	0.449049
2698.42	0.185849
2699.77	0.503736
2701.12	0.389127
2702.46	0.247154
2703.81	0.627884
2705.15	0.0381985
2706.5	0.216743
2707.85	0.453199
2709.19	0.0071125
2710.54	0.518713
2711.88	0.333073
2713.22	0.62667
2714.57	0.17905
2715.91	0.312677
2717.26	0.300772
2718.6	0.40496
2719.94	0.406922
2721.29	0.306499
2722.63	-0.143806
2723.97	0.613427
2725.31	0.00196743
2726.66	0.408965
2728	0.902873
2729.34	0.59602
2730.68	0.289062
2732.02	0.2731
2733.36	0.388145
2734.7	-0.0202971
2736.04	0.546016
2737.38	0.123422
2738.72	0.108043
2740.06	0.237814
2741.4	0.512435
2742.74	0.45188
2744.08	0.317903
2745.42	0.139733
2746.76	0.120957
2748.09	0.348741
2749.43	-0.0330248
2750.77	0.310884
2752.11	0.234353
2753.45	0.491456
2754.78	-0.0627651
2756.12	0.0352564
2757.46	0.509852
2758.79	0.0724812
2760.13	0.648823
2761.46	0.140183
2762.8	0.167547
2764.14	0.455686
2765.47	0.468883
2766.8	0.32243
2768.14	0.189464
2769.47	0.0840883
2770.81	0.121748
2772.14	-0.174284
2773.48	0.178358
2774.81	0.356779
2776.14	0.477208
2777.48	0.0365324
2778.81	-0.187136
2780.14	-0.0219412
2781.47	-0.143852
2782.8	0.107615
2784.14	0.286961
2785.47	0.351379
2786.8	-0.242951
2788.13	-0.234833
2789.46	-0.168694
2790.79	-0.0158615
2792.12	0.0519056
2793.45	-0.00851917
2794.78	-0.469049
2796.11	0.427683
2797.44	-0.0622425
2798.77	0.218593
2800.1	-0.386144
2801.43	0.0650063
2802.76	-0.0405645
2804.09	0.167199
2805.41	-0.0815086
2806.74	0.309929
2808.07	0.00318241
2809.4	0.293339
2810.72	0.0434208
2812.05	0.376337
2813.38	0.327147
2814.71	-0.230789
2816.03	-0.120676
2817.36	-0.22201
2818.68	0.17336
2820.01	-0.0690699
2821.33	0.184091
2822.66	0.138881
2823.98	0.0504971
2825.31	0.145905
2826.63	0.397077
2827.96	0.308907
2829.28	-0.0617552
2830.6	0.247627
2831.93	0.543063
2833.25	0.626089
2834.57	0.637981
2835.9	0.479496
2837.22	1.04208
2838.54	1.37757
2839.86	1.42979
2841.18	1.28418
2842.5	1.73279
2843.83	2.54948
2845.15	2.32115
2846.47	2.85677
2847.79	3.08198
2849.11	3.2931
2850.43	3.22118
2851.75	3.36061
2853.07	3.35804
2854.39	3.73648
2855.71	3.42227
2857.03	3.82857
2858.35	3.50037
2859.66	4.07606
2860.98	3.42292
2862.3	3.5884
2863.62	3.83802
2864.94	4.29882
2866.25	4.43491
2867.57	4.21868
2868.89	4.77863
2870.2	4.74686
2871.52	5.25095
2872.84	5.28945
2874.15	5.56644
2875.47	5.41925
2876.78	5.65081
2878.1	5.30407
2879.41	5.35109
2880.73	5.72176
2882.04	6.0932
2883.36	5.62317
2884.67	5.73046
2885.99	5.96487
2887.3	5.96073
2888.61	6.25064
2889.93	6.42708
2891.24	5.76088
2892.55	6.25768
2893.86	5.87124
2895.18	6.2838
2896.49	6.26324
2897.8	6.10426
2899.11	5.87682
2900.42	6.83965
2901.73	6.66994
2903.05	6.75234
2904.36	6.70905
2905.67	6.5263
2906.98	7.02971
2908.29	7.66024
2909.6	7.41073
2910.91	7.49782
2912.21	6.92706
2913.52	7.39109
2914.83	8.10529
2916.14	8.03304
2917.45	7.69268
2918.76	8.65227
2920.07	8.22637
2921.37	8.80839
2922.68	8.38543
2923.99	8.7753
2925.29	8.62167
2926.6	8.24527
2927.91	9.2669
2929.22	8.31689
2930.52	8.79209
2931.83	9.18271
2933.13	9.46111
2934.44	9.73943
2935.74	9.43092
2937.05	9.16465
2938.35	8.39563
2939.66	8.45152
2940.96	8.04701
2942.26	8.06289
2943.57	7.94068
2944.87	7.6805
2946.18	7.57562
2947.48	7.20569
2948.78	6.73722
2950.08	6.91102
2951.39	6.5365
2952.69	6.08948
2953.99	6.13078
2955.29	6.11561
2956.59	5.9896
2957.9	6.09016
2959.2	5.73222
2960.5	5.85385
2961.8	5.16524
2963.1	5.82346
2964.4	5.78003
2965.7	5.4819
2967	5.25166
2968.3	5.17423
2969.6	5.23643
2970.9	4.67966
2972.19	4.41847
2973.49	4.07317
2974.79	3.93887
2976.09	3.25471
2977.39	3.54051
2978.68	3.97924
2979.98	3.95122
2981.28	3.87939
2982.58	3.04743
2983.87	3.4538
2985.17	3.34122
2986.47	2.73873
2987.76	2.08193
2989.06	2.25539
2990.35	2.51358
2991.65	1.77342
2992.94	1.98785
2994.24	2.25703
2995.53	1.82248
2996.83	1.59807
2998.12	1.44384
2999.42	1.50046
3000.71	1.19314
3002	1.27921
3003.3	1.0715
3004.59	1.3544
3005.88	1.06273
3007.18	1.12061
3008.47	0.855768
3009.76	0.422507
3011.05	0.771543
3012.34	0.644946
3013.64	0.267498
3014.93	0.560258
3016.22	0.282284
3017.51	0.200454
3018.8	0.175017
3020.09	0.26103
3021.38	0.0268898
3022.67	0.0283594
3023.96	-0.429065
3025.25	-0.0961142
3026.54	0.111383
3027.83	0.388248
3029.12	-0.0253582
3030.41	0.212701
3031.69	0.065506
3032.98	0.168162
3034.27	0.353999
3035.56	-0.0677605
3036.84	-0.118127
3038.13	0.270646
3039.42	-0.224005
3040.71	-0.155538
3041.99	-0.0606699
3043.28	0.088788
3044.57	0.170411
3045.85	-0.0334082
3047.14	0.189069
3048.42	-0.33701
3049.71	0.0404615
3050.99	0.187572
3052.28	0.0354834
3053.56	0.211017
3054.85	0.0448732
3056.13	0.109682
3057.41	0.200647
3058.7	0.358891
3059.98	0.0266008
3061.26	0.0898247
3062.55	0.589361
3063.83	0.396719
3065.11	-0.052309
3066.39	0.0576973
3067.68	0.400054
3068.96	0.253512
3070.24	0.351613
3071.52	0.054493
3072.8	-0.107738
3074.08	-0.148702
3075.36	-0.312742
3076.65	-0.00149727
3077.93	0.160657
3079.21	-0.340884
3080.49	0.0819588
3081.77	0.018157
3083.04	0.254281
3084.32	0.111446
3085.6	-0.0990524
3086.88	0.232973
3088.16	0.143655
3089.44	0.0130434
3090.72	0.221368
3091.99	-0.208018
3093.27	0.0141468
3094.55	-0.10233
3095.83	-0.0420499
3097.1	0.0184674
3098.38	0.0790677
3099.66	0.139664
3100.93	0.10548
3102.21	0.125723
3103.49	0.0110259
3104.76	-0.75261
3106.04	0.163056
3107.31	0.0105863
3108.59	0.157095
3109.86	-0.0740814
3111.14	0.454048
3112.41	0.225004
3113.69	0.159015
3114.96	0.21511
3116.23	0.406589
3117.51	0.21767
3118.78	0.190548
3120.05	-0.040936
3121.33	0.215025
3122.6	0.673685
3123.87	-0.0465813
3125.14	0.222625
3126.41	0.235121
3127.69	0.627214
3128.96	0.343565
3130.23	0.479798
3131.5	0.26488
3132.77	0.523115
3134.04	0.605411
3135.31	0.754779
3136.58	0.660795
3137.85	0.822778
3139.12	0.539822
3140.39	0.889954
3141.66	0.876746
3142.93	0.917858
3144.2	0.932782
3145.47	1.19009
3146.74	0.925194
3148	0.916111
3149.27	0.707127
