200.563	0.464827
202.377	0.481815
204.194	0.500495
206.008	0.472006
207.821	0.857384
209.634	1.24189
211.449	0.046032
213.262	1.03441
215.074	0.516405
216.885	0.192479
218.699	1.12871
220.51	0.564218
222.321	0.8485
224.131	0.311953
225.941	0.308483
227.751	1.73047
229.562	0.301722
231.371	0.104501
233.18	0.896293
234.988	0.144913
236.796	-0.314705
238.603	0.289325
240.411	-0.0190229
242.219	-0.0831728
244.026	1.06068
245.832	0.974644
247.638	-0.00693798
249.443	0.915095
251.248	0.0462074
253.053	0.7188
254.857	0.375442
256.661	0.0561953
258.465	0.100049
260.268	0.266747
262.071	0.243445
263.874	0.342992
265.678	0.203189
267.48	-0.08076
269.282	-0.148231
271.083	0.265469
272.884	-0.334904
274.684	-0.213768
276.484	0.122192
278.284	0.383248
280.084	0.352373
281.883	0.511337
283.682	-0.366469
285.48	0.0768461
287.276	0.350347
289.074	0.28779
290.871	-0.156733
292.668	-0.550756
294.465	0.0864239
296.261	0.294653
298.057	0.241361
299.853	0.0455008
301.648	0.422766
303.443	0.177877
305.237	-0.402529
307.032	-0.196404
308.823	0.247643
310.617	-0.0702791
312.41	-0.552938
314.203	-0.0806208
315.995	0.036994
317.788	0.228575
319.579	0.350943
321.369	0.856391
323.16	-0.16273
324.951	0.487975
326.741	0.089056
328.531	1.05124
330.321	0.507509
332.108	0.152879
333.897	0.752726
335.686	-0.0141535
337.474	0.00548744
339.26	0.452931
341.048	-0.106356
342.835	0.122605
344.622	-0.0548058
346.406	0.174675
348.192	0.691546
349.978	-0.295051
351.764	-0.0639601
353.547	0.619613
355.332	0.156357
357.116	0.216218
358.901	0.15507
360.682	-0.240937
362.466	-0.0189009
364.249	-0.0121918
366.03	-0.244014
367.812	-0.00177956
369.594	0.499635
371.374	0.383018
373.155	-0.112813
374.936	-0.0881166
376.715	-0.417403
378.495	0.669469
380.273	0.153673
382.053	0.464203
383.832	-0.211757
385.609	0.0786419
387.388	0.417433
389.164	0.0528202
390.942	0.2534
392.72	-0.108567
394.495	0.751471
396.272	0.249953
398.047	-0.0401278
399.823	0.773447
401.597	-0.222149
403.372	0.19068
405.145	0.484992
406.92	0.707779
408.693	0.671387
410.467	0.282495
412.239	-0.0123053
414.012	0.0924902
415.783	-0.317963
417.556	0.234697
419.327	-0.291193
421.099	0.75564
422.869	-0.0755577
424.64	-0.25055
426.409	0.394871
428.18	-0.111148
429.948	0.48548
431.718	-0.584398
433.486	0.34116
435.253	-0.305304
437.022	-0.717139
438.789	0.606771
440.558	-0.0896444
442.324	0.337476
444.089	0.0579557
445.857	0.19796
447.622	0.523359
449.386	-0.204638
451.153	-0.0901785
452.917	-0.372312
454.682	-0.117266
456.446	-0.119034
458.208	0.32146
459.973	0.714845
461.735	0.0157709
463.497	0.20283
465.259	0.183903
467.022	0.00618649
468.783	-0.0750942
470.544	-0.456383
472.306	0.163231
474.066	0.270223
475.825	0.374874
477.585	0.5465
479.346	0.878685
481.104	0.254513
482.862	-0.089817
484.62	0.31276
486.38	0.788005
488.137	0.404126
489.894	0.13918
491.65	0.015274
493.407	0.522867
495.164	0.657462
496.92	0.277111
498.675	0.200241
500.43	1.03723
502.184	0.677629
503.939	0.762494
505.694	0.610807
507.448	0.833253
509.201	0.418536
510.954	1.17786
512.706	0.429102
514.459	1.30182
516.21	0.360919
517.962	0.336023
519.715	0.403809
521.466	0.587974
523.216	0.254667
524.966	0.555118
526.716	0.503343
528.466	1.36602
530.215	0.563844
531.964	0.979792
533.712	-0.0805025
535.46	0.239
537.208	0.672916
538.955	0.263654
540.703	1.6725
542.449	0.724563
544.196	0.848445
545.942	-0.212956
547.688	0.770594
549.433	0.315015
551.178	0.50907
552.923	0.494772
554.667	1.22011
556.412	0.328653
558.155	0.361838
559.899	0.0961437
561.642	0.936533
563.385	0.58035
565.127	0.386391
566.867	0.790785
568.609	-0.0209045
570.35	-0.187872
572.092	0.54179
573.832	-0.332264
575.573	0.287142
577.313	-0.0547686
579.053	0.431236
580.79	0.436349
582.529	0.257722
584.268	0.629915
586.006	0.150002
587.745	0.381229
589.482	-0.332413
591.218	-0.495178
592.955	-0.520568
594.692	0.489163
596.428	0.417591
598.164	0.23092
599.898	-0.117305
601.634	0.315488
603.369	0.355417
605.104	0.738136
606.836	0.0158205
608.57	0.441385
610.304	0.613846
612.037	-0.451813
613.769	0.295819
615.501	-0.308461
617.234	0.874865
618.966	0.270246
620.696	-0.0606451
622.427	0.499301
624.159	0.623018
625.887	0.0613489
627.618	0.300869
629.348	0.177728
631.076	0.171905
632.806	0.625164
634.535	0.943003
636.262	0.529905
637.99	0.707807
639.716	0.608006
641.444	0.641019
643.172	-0.332033
644.897	0.0838671
646.624	0.18103
648.348	-0.105763
650.075	0.29354
651.801	-0.051939
653.524	-0.0515032
655.249	-0.365235
656.972	-0.22125
658.697	0.220526
660.419	0.43438
662.143	-0.152929
663.865	0.0785704
665.588	1.47312
667.309	0.853409
669.032	0.163872
670.752	-0.639208
672.474	0.413396
674.194	0.691751
675.915	0.400361
677.634	-0.119437
679.355	0.094841
681.073	0.722006
682.793	0.565481
684.511	-0.330781
686.23	0.542782
687.947	0.240054
689.664	0.972373
691.382	0.183433
693.098	0.430208
694.816	0.698936
696.531	0.298434
698.247	-0.103447
699.963	0.413723
701.678	0.146956
703.392	0.54575
705.108	0.552616
706.821	0.673522
708.534	0.587293
710.249	0.477742
711.962	0.00163078
713.674	0.875364
715.388	0.490436
717.099	0.83673
718.81	0.817562
720.523	1.20886
722.234	0.871051
723.944	1.01165
725.654	0.378943
727.365	0.905213
729.075	1.04423
730.784	1.04635
732.492	1.63675
734.202	1.70533
735.91	1.02806
737.618	0.781627
739.325	0.874959
741.034	0.653868
742.741	0.862706
744.447	1.05059
746.153	1.01518
747.859	1.88154
749.564	1.26489
751.271	1.66226
752.976	1.09427
754.681	0.505495
756.385	0.683528
758.088	1.02135
759.792	1.09111
761.495	0.756593
763.2	0.941217
764.902	2.07412
766.604	1.60264
768.306	1.64803
770.008	1.2382
771.709	1.0969
773.41	0.77286
775.11	1.69191
776.811	1.75248
778.51	1.20433
780.21	1.78888
781.909	1.56077
783.608	1.53633
785.307	2.46102
787.005	1.45836
788.703	1.28905
790.401	1.29648
792.098	2.15913
793.795	1.39246
795.492	1.16831
797.188	1.59939
798.884	1.42399
800.58	1.67887
802.276	1.8679
803.971	1.74281
805.665	2.11212
807.36	2.23276
809.054	1.96987
810.748	2.22182
812.441	1.82186
814.135	1.73543
815.826	1.78315
817.518	1.74125
819.21	2.12413
820.902	2.10469
822.594	2.59899
824.285	1.93438
825.976	2.36446
827.665	2.44084
829.355	1.65256
831.045	1.84843
832.735	1.78088
834.424	1.87215
836.111	2.83475
837.8	1.94571
839.488	2.5948
841.177	2.39335
842.864	1.49731
844.55	2.5668
846.237	2.2967
847.924	1.9619
849.61	1.47355
851.295	2.15229
852.98	1.55724
854.666	2.35343
856.349	1.73578
858.034	2.48693
859.719	1.81929
861.403	1.71112
863.085	1.19508
864.769	2.16438
866.452	1.80295
868.133	1.93654
869.816	1.4606
871.498	1.97661
873.179	1.90593
874.86	1.27102
876.54	1.04218
878.221	1.96438
879.902	1.8483
881.58	1.4382
883.26	1.65916
884.938	1.6077
886.618	1.35119
888.297	1.38597
889.974	1.30583
891.653	2.03505
893.329	1.47782
895.007	1.07736
896.683	1.7102
898.36	1.75654
900.035	1.68934
901.712	1.75558
903.387	1.99992
905.063	0.880233
906.737	0.678795
908.412	1.81621
910.085	1.52717
911.76	1.66263
913.433	1.73213
915.107	1.2913
916.779	1.84956
918.452	1.45375
920.124	1.21386
921.797	0.908827
923.467	1.51212
925.138	1.27746
926.81	0.935185
928.48	1.34588
930.151	1.05189
931.82	1.37669
933.489	1.39291
935.16	1.78434
936.828	1.84552
938.496	0.871387
940.165	2.39122
941.833	0.758577
943.5	0.450129
945.168	0.693078
946.834	1.00078
948.5	0.997
950.168	0.747903
951.834	0.982742
953.499	0.445711
955.163	0.660793
956.83	0.879577
958.494	0.727802
960.158	1.24177
961.821	1.60383
963.487	1.03772
965.15	1.15416
966.812	0.979373
968.474	0.557361
970.138	1.61491
971.8	1.78623
973.461	0.94097
975.123	0.916118
976.783	1.29185
978.446	-0.0336285
980.106	0.278501
981.766	0.590242
983.425	0.98883
985.084	1.31837
986.743	1.29083
988.402	1.19447
990.06	1.56086
991.72	1.21879
993.378	0.391038
995.035	1.52893
996.692	1.07731
998.349	1.75062
1000.01	1.62955
1001.66	2.12465
1003.32	0.94604
1004.97	1.63779
1006.63	1.16378
1008.28	1.70072
1009.94	1.64494
1011.59	0.95394
1013.25	1.20681
1014.9	1.17521
1016.55	0.903425
1018.21	0.851451
1019.86	0.713179
1021.51	1.3635
1023.16	1.44673
1024.81	1.18161
1026.47	1.68217
1028.12	1.65823
1029.77	1.24014
1031.42	1.56304
1033.07	1.38134
1034.72	0.761189
1036.37	2.27649
1038.02	1.23967
1039.67	1.40158
1041.31	1.39025
1042.96	1.20692
1044.61	1.91705
1046.26	1.56523
1047.91	1.91122
1049.55	1.23883
1051.2	1.02422
1052.84	0.854087
1054.49	1.20591
1056.14	1.8839
1057.78	1.21392
1059.43	1.67363
1061.07	1.74112
1062.72	1.15515
1064.36	1.95947
1066	1.74032
1067.65	1.34584
1069.29	0.537476
1070.93	2.05249
1072.58	1.5908
1074.22	1.36892
1075.86	1.01856
1077.5	1.29914
1079.14	1.64645
1080.78	1.77795
1082.42	1.19381
1084.06	0.825275
1085.7	1.62515
1087.34	0.406545
1088.98	1.02698
1090.62	1.42778
1092.26	0.723876
1093.9	1.3595
1095.54	1.39018
1097.17	1.14181
1098.81	1.08965
1100.45	0.953918
1102.09	0.820995
1103.72	0.81967
1105.36	0.755594
1106.99	1.03639
1108.63	1.16613
1110.27	0.47725
1111.9	0.302485
1113.53	1.13532
1115.17	1.12829
1116.8	0.691449
1118.43	0.83422
1120.07	1.70617
1121.7	1.22965
1123.33	1.16175
1124.97	0.560431
1126.6	1.84288
1128.23	0.880521
1129.86	1.22374
1131.49	1.22562
1133.12	-0.268514
1134.75	1.27273
1136.38	1.23113
1138.01	0.290647
1139.64	0.652052
1141.27	0.691578
1142.9	0.538383
1144.53	0.364248
1146.16	0.916052
1147.78	0.0196629
1149.41	-0.278503
1151.04	0.126976
1152.67	0.361896
1154.29	0.936847
1155.92	0.531939
1157.54	0.786685
1159.17	0.191062
1160.8	0.085988
1162.42	0.577772
1164.05	0.411744
1165.67	0.267622
1167.29	0.803492
1168.92	0.466149
1170.54	0.636724
1172.16	0.910743
1173.79	0.523893
1175.41	0.62387
1177.03	0.320294
1178.65	0.20815
1180.28	0.414622
1181.9	0.0932178
1183.52	-0.0789566
1185.14	0.636462
1186.76	-0.276158
1188.38	0.709225
1190	-0.501776
1191.62	-0.0494919
1193.24	-0.167859
1194.86	-0.0769634
1196.47	0.37017
1198.09	-0.271274
1199.71	-0.0305481
1201.33	0.90224
1202.95	0.730669
1204.56	0.47936
1206.18	0.877856
1207.8	0.756423
1209.41	0.280715
1211.03	0.367127
1212.64	0.242722
1214.26	-0.1762
1215.87	0.547726
1217.49	0.997633
1219.1	0.780383
1220.71	0.521975
1222.33	0.55538
1223.94	0.984097
1225.55	0.896625
1227.16	1.51487
1228.78	0.624639
1230.39	1.12206
1232	1.53818
1233.61	0.674453
1235.22	1.56927
1236.83	1.28769
1238.44	1.5863
1240.05	1.88595
1241.66	1.68958
1243.27	1.03745
1244.88	1.60484
1246.49	2.17092
1248.1	1.53539
1249.71	2.11963
1251.32	1.44142
1252.92	1.09467
1254.53	1.53498
1256.14	1.74928
1257.74	1.5723
1259.35	1.47963
1260.96	1.6572
1262.56	2.78814
1264.17	1.9519
1265.77	2.6687
1267.38	1.76799
1268.98	1.83995
1270.59	1.84828
1272.19	2.10392
1273.79	1.94343
1275.4	2.07177
1277	1.97077
1278.6	2.07584
1280.21	2.09714
1281.81	1.78688
1283.41	2.38731
1285.01	2.49177
1286.61	1.85328
1288.21	2.374
1289.81	2.23457
1291.41	3.02572
1293.01	3.5066
1294.61	3.71761
1296.21	3.51344
1297.81	4.40096
1299.41	2.66485
1301.01	3.60877
1302.6	3.56063
1304.2	3.71688
1305.8	3.3989
1307.4	3.30669
1308.99	3.35783
1310.59	3.14253
1312.19	2.64168
1313.78	3.22686
1315.38	2.97474
1316.97	2.76528
1318.57	2.76095
1320.16	2.93986
1321.76	2.70972
1323.35	2.47773
1324.94	2.52826
1326.54	2.69849
1328.13	1.91477
1329.72	2.40942
1331.32	2.7839
1332.91	2.39315
1334.5	2.87442
1336.09	2.8933
1337.68	2.42887
1339.27	2.56861
1340.87	2.2626
1342.45	2.41686
1344.04	2.5278
1345.64	1.87415
1347.22	1.92419
1348.81	1.53588
1350.4	2.21231
1351.99	2.09135
1353.58	1.97337
1355.17	1.57742
1356.75	2.06133
1358.34	1.26588
1359.93	1.88743
1361.51	1.46914
1363.1	1.72837
1364.69	1.40874
1366.27	1.50826
1367.86	1.94731
1369.44	1.41231
1371.03	1.23777
1372.61	2.07993
1374.2	1.66998
1375.78	1.2211
1377.37	2.1453
1378.95	1.61617
1380.53	1.86167
1382.11	1.56817
1383.7	1.84974
1385.28	0.996795
1386.86	1.41553
1388.44	1.9334
1390.02	2.27312
1391.6	1.78048
1393.19	1.78513
1394.77	1.59194
1396.35	2.56842
1397.93	2.27468
1399.51	2.05897
1401.08	1.62428
1402.66	1.90183
1404.24	1.4669
1405.82	2.29862
1407.4	1.60892
1408.97	2.20516
1410.55	2.30791
1412.13	2.43023
1413.71	2.25551
1415.28	2.15855
1416.86	1.94219
1418.43	2.11974
1420.01	2.21882
1421.59	1.96494
1423.16	2.38271
1424.73	2.2909
1426.31	2.92907
1427.88	2.82006
1429.46	3.30107
1431.03	4.23333
1432.6	4.21898
1434.18	4.39986
1435.75	5.42563
1437.32	5.50744
1438.89	5.15804
1440.46	5.47866
1442.04	4.81817
1443.61	5.45592
1445.18	4.77751
1446.75	5.27864
1448.32	5.36728
1449.89	5.18121
1451.46	4.81889
1453.03	5.73563
1454.6	5.02064
1456.16	5.26932
1457.73	4.84786
1459.3	5.27049
1460.87	4.03722
1462.44	4.47373
1464	4.08146
1465.57	3.29483
1467.14	3.15679
1468.7	3.31395
1470.27	2.70698
1471.83	3.43605
1473.4	2.69535
1474.96	2.30901
1476.53	1.96256
1478.09	2.40049
1479.66	2.19136
1481.22	2.13892
1482.78	1.20452
1484.35	1.38704
1485.91	1.52981
1487.47	1.02513
1489.04	0.656079
1490.6	1.12632
1492.16	1.65169
1493.72	0.923221
1495.28	0.837782
1496.84	0.166734
1498.4	0.820259
1499.96	1.22026
1501.52	0.281335
1503.08	0.703314
1504.64	0.641212
1506.2	0.540805
1507.76	0.111021
1509.32	0.58871
1510.88	0.292096
1512.44	0.68884
1513.99	0.564518
1515.55	0.863592
1517.11	0.529252
1518.66	0.215838
1520.22	0.210331
1521.78	-0.0245581
1523.33	0.161101
1524.89	0.650773
1526.44	0.432528
1528	0.994308
1529.55	0.641245
1531.11	0.346144
1532.66	0.450657
1534.21	0.23414
1535.77	0.359859
1537.32	0.769858
1538.87	0.594784
1540.43	0.722197
1541.98	0.60458
1543.53	0.938706
1545.08	0.538698
1546.63	0.758991
1548.18	0.791006
1549.74	0.729197
1551.29	1.11712
1552.84	0.981227
1554.39	1.01501
1555.94	0.957174
1557.48	0.901688
1559.03	0.177039
1560.58	0.779562
1562.13	0.936231
1563.68	0.758469
1565.23	0.861239
1566.78	1.02009
1568.32	1.17867
1569.87	0.96345
1571.42	1.17704
1572.96	1.96897
1574.51	1.82736
1576.05	1.27507
1577.6	1.43243
1579.14	1.08626
1580.69	1.03956
1582.24	1.34868
1583.78	1.54693
1585.32	1.37247
1586.87	1.32935
1588.41	1.47339
1589.95	1.22427
1591.5	1.59212
1593.04	1.90341
1594.58	1.54021
1596.12	1.57032
1597.67	1.7322
1599.21	2.25132
1600.75	1.64627
1602.29	1.86702
1603.83	1.63722
1605.37	1.5002
1606.91	1.68075
1608.45	1.4453
1609.99	1.88345
1611.53	1.36016
1613.07	1.54841
1614.6	0.927829
1616.14	1.15152
1617.68	1.93786
1619.22	1.48845
1620.75	1.47208
1622.29	1.62595
1623.83	1.48124
1625.37	1.43014
1626.9	2.10788
1628.44	1.92291
1629.97	0.988276
1631.51	1.4176
1633.04	1.86462
1634.58	1.69556
1636.11	1.65833
1637.65	1.67826
1639.18	1.73624
1640.72	1.99917
1642.25	1.92571
1643.78	1.57155
1645.31	1.42093
1646.85	1.86438
1648.38	1.95378
1649.91	1.9879
1651.44	2.24596
1652.97	2.5054
1654.5	2.15428
1656.03	2.02662
1657.56	2.52885
1659.1	2.45545
1660.62	2.17671
1662.15	2.43282
1663.68	3.11217
1665.21	2.03511
1666.74	2.80573
1668.27	1.64038
1669.8	1.87918
1671.32	1.82489
1672.85	1.56943
1674.38	2.56685
1675.91	1.63033
1677.43	1.70551
1678.96	2.34944
1680.49	1.64919
1682.01	1.97771
1683.54	1.626
1685.06	1.60515
1686.59	1.6398
1688.11	1.30844
1689.64	2.02204
1691.16	0.867723
1692.68	0.977315
1694.21	1.19644
1695.73	1.0312
1697.25	1.04851
1698.78	1.37578
1700.3	0.753107
1701.82	1.38893
1703.34	0.419419
1704.86	0.0880232
1706.39	0.429789
1707.91	0.134398
1709.43	0.329799
1710.95	0.651982
1712.47	0.738123
1713.99	0.552558
1715.51	1.09143
1717.02	0.580276
1718.54	0.521578
1720.06	0.553167
1721.58	1.52309
1723.1	0.995914
1724.62	1.31754
1726.13	0.488084
1727.65	0.398994
1729.17	0.185161
1730.68	0.691463
1732.2	0.87042
1733.72	0.291099
1735.23	0.116303
1736.75	0.891555
1738.26	0.804451
1739.78	1.31422
1741.29	0.419031
1742.81	0.761539
1744.32	0.247659
1745.84	0.846906
1747.35	0.596133
1748.86	0.346416
1750.37	0.639539
1751.89	0.197862
1753.4	0.534049
1754.91	0.834241
1756.42	0.366544
1757.93	0.0630159
1759.45	-0.162603
1760.96	-0.136871
1762.47	0.384254
1763.98	0.211461
1765.49	0.312643
1767	0.0567598
1768.51	0.223288
1770.02	0.303969
1771.53	0.89115
1773.03	0.329947
1774.54	0.0184307
1776.05	0.415442
1777.56	0.187284
1779.07	-0.168616
1780.57	0.183042
1782.08	-0.0477266
1783.59	-0.0584612
1785.09	0.37641
1786.6	-0.258433
1788.11	-0.0833874
1789.61	-0.0697107
1791.12	0.317814
1792.62	0.15288
1794.13	-0.185596
1795.63	0.0684099
1797.13	0.249719
1798.64	0.167845
1800.14	0.311499
1801.65	0.106606
1803.15	-0.126058
1804.65	0.108953
1806.15	-0.0518093
1807.66	-0.0962982
1809.16	0.384116
1810.66	-0.0949965
1812.16	-0.238474
1813.66	0.221639
1815.16	0.367368
1816.66	0.152605
1818.16	0.106218
1819.66	0.0133982
1821.16	0.23047
1822.66	0.076108
1824.16	0.000554085
1825.66	0.48367
1827.16	0.306337
1828.66	-0.0101242
1830.16	0.0798807
1831.65	0.301457
1833.15	0.18746
1834.65	-0.141415
1836.14	-0.0869293
1837.64	0.090395
1839.14	-0.275475
1840.63	0.0951862
1842.13	-0.270741
1843.62	0.163209
1845.12	-0.0919685
1846.61	0.0333891
1848.11	0.110348
1849.6	0.107778
1851.1	-0.0736723
1852.59	0.0426083
1854.08	0.22652
1855.58	-0.0147963
1857.07	0.277743
1858.56	0.0690985
1860.05	0.236873
1861.55	0.119746
1863.04	0.106106
1864.53	0.19372
1866.02	0.246085
1867.51	-0.0318069
1869	0.359114
1870.49	0.258058
1871.98	0.137579
1873.47	0.0688076
1874.96	0.286085
1876.45	0.0650635
1877.94	0.683748
1879.43	-0.104869
1880.92	-0.134634
1882.41	0.282094
1882.51	0.311647
1884	0.294309
1885.5	0.450316
1886.99	0.309045
1888.48	0.167314
1889.98	-0.0610542
1891.47	0.251021
1892.96	0.547363
1894.46	0.289456
1895.95	0.572373
1897.44	0.282475
1898.93	-0.00766277
1900.42	0.135887
1901.91	-0.470435
1903.41	0.608433
1904.9	0.763473
1906.39	-0.177204
1907.88	0.862693
1909.37	0.218644
1910.86	-0.00737095
1912.35	0.392263
1913.83	-0.0227556
1915.32	0.01334
1916.81	0.0490446
1918.3	0.222772
1919.79	-0.0372963
1921.27	0.256957
1922.76	0.0493326
1924.25	0.206364
1925.74	0.174239
1927.22	0.00485134
1928.71	0.199779
1930.19	0.204239
1931.68	0.0692444
1933.17	0.00187588
1934.65	0.0710058
1936.14	-0.484678
1937.62	-0.159237
1939.11	0.199805
1940.59	0.0579472
1942.07	0.193345
1943.56	0.243572
1945.04	0.553431
1946.52	-0.0328836
1948.01	-0.360582
1949.49	-0.430453
1950.97	-0.122553
1952.45	-0.0225229
1953.93	0.40343
1955.42	-0.116403
1956.9	-0.0340757
1958.38	0.2892
1959.86	0.750222
1961.34	0.439872
1962.82	0.335704
1964.3	0.419872
1965.78	0.00675869
1967.26	0.603093
1968.74	-0.119116
1970.21	0.0819731
1971.69	-0.725279
1973.17	-0.114781
1974.65	0.119718
1976.13	0.541575
1977.6	0.264721
1979.08	0.141546
1980.56	-0.185618
1982.03	0.150409
1983.51	0.383704
1984.99	0.0391665
1986.46	0.0340767
1987.94	0.130654
1989.41	-0.178987
1990.89	-0.064374
1992.36	-0.43934
1993.84	0.0324345
1995.31	0.26816
1996.78	0.385978
1998.26	0.0139208
1999.73	0.671453
2001.2	0.551491
2002.68	0.346717
2004.15	0.647718
2005.62	0.257969
2007.09	0.72842
2008.56	-0.0800524
2010.04	0.442833
2011.51	0.141341
2012.98	0.210279
2014.45	0.396521
2015.92	-0.208944
2017.39	0.194052
2018.86	0.192327
2020.33	0.0555553
2021.8	0.489731
2023.26	0.269224
2024.73	0.0330343
2026.2	0.0331621
2027.67	0.420657
2029.14	0.138949
2030.61	0.194214
2032.07	0.116358
2033.54	-0.330314
2035.01	0.0791454
2036.47	-0.385074
2037.94	-0.093997
2039.4	0.112743
2040.87	-0.100749
2042.33	0.0391693
2043.8	0.314567
2045.27	0.170523
2046.73	0.565952
2048.19	0.13676
2049.66	0.229213
2051.12	0.21946
2052.59	0.258538
2054.05	0.160649
2055.51	0.145105
2056.97	0.16173
2058.44	-0.429191
2059.9	0.159245
2061.36	-0.0268517
2062.82	0.0237312
2064.28	0.0417519
2065.74	0.616239
2067.21	0.316585
2068.67	0.270032
2070.13	0.291162
2071.59	0.14402
2073.05	-0.104344
2074.51	0.640457
2075.96	0.054615
2077.42	0.579791
2078.88	0.279343
2080.34	-0.00475121
2081.8	0.182023
2083.26	0.351155
2084.72	0.704464
2086.17	0.821172
2087.63	0.163604
2089.09	0.0103521
2090.54	0.293758
2092	0.106708
2093.45	0.540605
2094.91	0.45386
2096.37	0.819177
2097.82	0.396054
2099.28	0.391224
2100.73	0.235533
2102.19	0.36439
2103.64	0.610884
2105.09	0.658282
2106.55	0.0899773
2108	0.624011
2109.45	0.624587
2110.91	0.30783
2112.36	0.0398321
2113.81	0.103315
2115.26	0.730688
2116.72	0.657722
2118.17	0.518797
2119.62	1.16171
2121.07	0.943466
2122.52	0.462331
2123.97	0.397618
2125.42	0.963752
2126.87	0.667357
2128.32	0.734603
2129.77	0.551682
2131.22	0.764945
2132.67	0.497032
2134.11	0.95727
2135.56	0.657327
2137.01	0.656804
2138.46	0.90626
2139.91	0.943016
2141.35	0.98168
2142.8	1.33594
2144.25	1.82359
2145.7	1.15332
2147.14	1.0782
2148.59	1.56541
2150.03	1.58801
2151.48	1.3443
2152.92	0.883986
2154.37	1.11862
2155.81	1.51835
2157.26	1.47082
2158.7	1.54008
2160.15	1.62749
2161.59	1.23645
2163.03	1.14568
2164.47	1.10634
2165.92	1.649
2167.36	1.67732
2168.8	1.78754
2170.24	1.94565
2171.69	1.68539
2173.13	1.67226
2174.57	0.825807
2176.01	1.44242
2177.45	1.19441
2178.89	1.54586
2180.33	1.89842
2181.77	1.27109
2183.21	1.29286
2184.65	1.76404
2186.09	1.66987
2187.53	1.4925
2188.97	1.94752
2190.4	1.68693
2191.84	1.19286
2193.28	1.53032
2194.72	1.74967
2196.16	1.68383
2197.59	1.01667
2199.03	1.54543
2200.47	1.44085
2201.9	1.05399
2203.34	0.701606
2204.77	1.11362
2206.21	1.12863
2207.64	0.846053
2209.08	0.629763
2210.51	0.843154
2211.95	1.0221
2213.38	0.93547
2214.82	0.964425
2216.25	1.34066
2217.68	0.744412
2219.12	0.727306
2220.55	1.20576
2221.98	0.744677
2223.41	0.678517
2224.85	0.594416
2226.28	0.969252
2227.71	0.733291
2229.14	0.594857
2230.57	0.882377
2232	0.382442
2233.43	0.882406
2234.86	1.15323
2236.29	0.330334
2237.72	0.277772
2239.15	0.58629
2240.58	0.505315
2242.01	0.622094
2243.44	0.462989
2244.87	0.646824
2246.29	0.797324
2247.72	0.489383
2249.15	0.407468
2250.58	0.420944
2252.01	0.481281
2253.43	0.134018
2254.86	0.632547
2256.29	-0.134461
2257.71	0.270249
2259.14	0.531754
2260.56	0.212388
2261.99	0.447373
2263.41	-0.176425
2264.84	0.450718
2266.26	0.444047
2267.69	0.322618
2269.11	0.42791
2270.53	0.451
2271.96	0.147871
2273.38	0.577294
2274.8	0.485713
2276.23	0.410614
2277.65	0.48235
2279.07	0.700919
2280.49	0.169426
2281.91	0.0126734
2283.34	0.524658
2284.76	0.547362
2286.18	0.0479851
2287.6	0.61002
2289.02	0.307232
2290.44	-0.0607023
2291.86	0.388711
2293.28	0.36438
2294.7	0.225465
2296.12	0.413705
2297.54	0.438288
2298.96	0.151673
2300.37	0.045289
2301.79	0.496625
2303.21	0.308886
2304.63	0.433002
2306.04	0.179431
2307.46	0.33601
2308.88	0.163383
2310.3	0.154414
2311.71	0.145
2313.13	0.0697155
2314.54	-0.0216599
2315.96	0.101727
2317.37	0.0942574
2318.79	0.12023
2320.2	0.459362
2321.62	0.319097
2323.03	0.572786
2324.45	0.328821
2325.86	0.544416
2327.27	0.510605
2328.69	0.920933
2330.1	0.573316
2331.51	0.292887
2332.92	-0.00256252
2334.34	0.24605
2335.75	0.0835619
2337.16	-0.0299816
2338.57	0.463807
2339.98	0.0521374
2341.39	0.280357
2342.8	0.195913
2344.21	0.193535
2345.63	0.0931101
2347.04	0.140532
2348.45	0.0897141
2349.85	-0.0923119
2351.26	0.00299072
2352.67	0.325751
2354.08	-0.120005
2355.49	0.135296
2356.9	0.519953
2358.3	-0.0884256
2359.71	-0.321684
2361.12	0.0948658
2362.53	-0.154222
2363.93	0.115375
2365.34	0.0607557
2366.75	0.0549364
2368.15	0.178924
2369.56	0.0134144
2370.97	-0.182673
2372.37	0.412285
2373.77	-0.0550585
2375.18	-0.231847
2376.59	0.154254
2377.99	0.0564137
2379.39	0.101667
2380.8	0.289534
2382.2	-0.101795
2383.6	0.307599
2385.01	-0.0360804
2386.41	-0.0190487
2387.81	-0.00111675
2389.21	0.201392
2390.62	0.0225458
2392.02	-0.0592709
2393.42	-0.52181
2394.82	0.20977
2396.22	0.400951
2397.62	0.115902
2399.02	0.451298
2400.42	0.294625
2401.82	0.0748081
2403.22	0.0456781
2404.62	0.0479193
2406.02	0.334976
2407.42	0.224128
2408.82	0.302831
2410.22	0.0640507
2411.62	-0.14258
2413.01	0.000210762
2414.41	0.365888
2415.81	0.0206394
2417.21	0.246749
2418.6	0.25221
2420	0.574811
2421.4	0.216281
2422.79	0.11072
2424.19	-0.0902395
2425.59	0.136651
2426.98	-0.174736
2428.38	0.117058
2429.77	0.061121
2431.17	0.196274
2432.56	0.680972
2433.95	0.704948
2435.35	0.251092
2436.74	-0.0456858
2438.14	-0.0898876
2439.53	-0.0242443
2440.92	0.0880346
2442.31	0.310766
2443.71	0.136304
2445.1	0.0728121
2446.49	-0.323747
2447.88	0.246587
2449.27	-0.102356
2450.67	-0.00743389
2452.06	0.467817
2453.45	0.0575047
2454.84	0.10706
2456.23	-0.0799456
2457.62	0.27121
2459.01	0.400713
2460.4	0.086751
2461.79	-0.00660419
2463.18	0.0256948
2464.57	-0.258643
2465.95	-0.021925
2467.34	-0.00652218
2468.73	0.0245752
2470.12	0.165821
2471.5	0.101519
2472.89	0.115321
2474.28	0.490352
2475.67	-0.221274
2477.05	0.0108643
2478.44	0.0383949
2479.82	-0.404722
2481.21	0.203563
2482.6	0.262456
2483.98	0.226817
2485.37	0.315409
2486.75	0.324471
2488.13	0.176263
2489.52	0.713318
2490.9	0.283825
2492.29	0.384475
2493.67	-0.27481
2495.05	-0.295372
2496.44	0.181363
2497.82	0.224589
2499.2	-0.0879641
2500.58	-0.122022
2501.97	0.0595293
2503.35	-0.084527
2504.73	-0.229248
2506.11	-0.0815668
2507.49	0.111687
2508.87	-0.0950928
2510.25	-0.362436
2511.63	-0.29107
2513.01	0.0415144
2514.39	-0.0544338
2515.77	0.0190172
2517.15	-0.457517
2518.53	0.351274
2519.91	0.380072
2521.29	0.362726
2522.67	0.115728
2524.05	0.26472
2525.42	0.0621719
2526.8	0.514442
2528.18	0.266475
2529.55	0.308929
2530.93	-0.254938
2532.31	0.0342035
2533.69	0.142336
2535.06	-0.174188
2536.44	0.284066
2537.81	0.0275764
2539.19	0.362466
2540.56	0.119321
2541.94	0.0732336
2543.31	0.315715
2544.69	0.210065
2546.06	-0.0156097
2547.44	-0.315867
2548.81	0.370789
2550.18	0.587365
2551.56	-0.0312147
2552.93	0.472205
2554.3	0.625414
2555.67	0.398257
2557.04	0.231252
2558.42	-0.148108
2559.79	-0.0267582
2561.16	-0.0261793
2562.53	0.0508175
2563.9	-0.371683
2565.27	0.312492
2566.64	0.0119019
2568.01	0.317578
2569.38	0.683897
2570.75	0.216617
2572.12	-0.0688019
2573.49	0.509855
2574.86	0.179094
2576.23	-0.288153
2577.6	-0.315863
2578.97	0.763081
2580.33	0.370851
2581.7	0.402724
2583.07	0.221908
2584.44	-0.00462914
2585.8	0.587345
2587.17	0.436632
2588.54	-0.3504
2589.9	0.181221
2591.27	-0.302662
2592.64	0.213078
2594	0.379358
2595.37	-0.212743
2596.73	0.133006
2598.1	0.341393
2599.46	0.443271
2600.83	0.59044
2602.19	0.466143
2603.55	0.191727
2604.92	-0.112064
2606.28	0.33878
2607.64	0.472281
2609.01	0.408798
2610.37	0.208499
2611.73	0.187652
2613.09	0.135504
2614.46	0.187746
2615.82	0.179556
2617.18	0.621316
2618.54	0.194232
2619.9	0.142803
2621.26	0.406226
2622.62	0.460637
2623.98	0.664537
2625.34	0.569635
2626.7	0.0719442
2628.06	0.245142
2629.42	0.59641
2630.78	0.604683
2632.14	0.404668
2633.5	0.130624
2634.86	0.198342
2636.21	-0.179005
2637.57	-0.0519638
2638.93	-0.324867
2640.29	0.00938129
2641.64	-0.0410118
2643	0.425998
2644.36	0.375817
2645.71	-0.116977
2647.07	0.275009
2648.43	-0.144501
2649.78	0.436539
2651.14	-0.0722036
2652.49	0.139347
2653.85	-0.397559
2655.2	0.00537205
2656.56	0.394093
2657.91	0.373672
2659.26	0.544415
2660.62	0.247534
2661.97	0.155379
2663.32	0.632309
2664.68	0.392503
2666.03	0.254279
2667.38	0.436348
2668.74	0.341318
2670.09	0.14487
2671.44	0.356352
2672.79	0.582746
2674.14	-0.0327311
2675.49	-0.0808954
2676.84	0.0601654
2678.19	0.390337
2679.54	0.416702
2680.89	0.313698
2682.24	-0.150483
2683.59	0.1405
2684.94	0.751732
2686.29	0.449746
2687.64	0.0893269
2688.99	0.540443
2690.34	0.554246
2691.69	0.0580082
2693.03	0.111755
2694.38	0.164393
2695.73	0.260228
2697.08	0.820136
2698.42	0.164633
2699.77	0.539228
2701.12	0.582677
2702.46	0.135324
2703.81	0.239421
2705.15	0.547125
2706.5	0.521574
2707.85	0.0748787
2709.19	0.483851
2710.54	0.500601
2711.88	0.444419
2713.22	0.853024
2714.57	0.491407
2715.91	0.347584
2717.26	0.668921
2718.6	0.102718
2719.94	0.627167
2721.29	0.467288
2722.63	0.947228
2723.97	0.902679
2725.31	0.362719
2726.66	0.739313
2728	0.315028
2729.34	0.501735
2730.68	0.164408
2732.02	0.56909
2733.36	0.450068
2734.7	0.854885
2736.04	0.285374
2737.38	-0.0366926
2738.72	0.32477
2740.06	0.584109
2741.4	0.697456
2742.74	0.533813
2744.08	0.282268
2745.42	0.495073
2746.76	0.69269
2748.09	-0.0535765
2749.43	0.274488
2750.77	0.631493
2752.11	0.379584
2753.45	0.0411491
2754.78	-0.180985
2756.12	0.0895891
2757.46	0.490486
2758.79	-0.0784502
2760.13	-0.00992489
2761.46	0.218266
2762.8	-0.175286
2764.14	0.0826426
2765.47	0.28266
2766.8	-0.0531263
2768.14	-0.346399
2769.47	0.0965796
2770.81	-0.0115499
2772.14	0.196681
2773.48	0.100447
2774.81	0.378592
2776.14	0.483338
2777.48	-0.0881262
2778.81	0.463591
2780.14	-0.105815
2781.47	-0.0709553
2782.8	-0.193917
2784.14	-0.00127602
2785.47	0.04776
2786.8	-0.17522
2788.13	0.175174
2789.46	0.354344
2790.79	0.00517273
2792.12	-0.571711
2793.45	0.281671
2794.78	-0.165841
2796.11	-0.0133858
2797.44	0.0812607
2798.77	0.203783
2800.1	-0.644761
2801.43	0.13342
2802.76	0.154955
2804.09	-0.180085
2805.41	0.296599
2806.74	0.188461
2808.07	0.293104
2809.4	0.112884
2810.72	-0.0102367
2812.05	-0.217688
2813.38	-0.0691118
2814.71	-0.0892639
2816.03	0.671747
2817.36	0.427525
2818.68	-0.042779
2820.01	0.28066
2821.33	0.0366859
2822.66	0.174657
2823.98	-0.240653
2825.31	0.717815
2826.63	0.54298
2827.96	0.680294
2829.28	0.535088
2830.6	0.857592
2831.93	1.01046
2833.25	1.12081
2834.57	1.1317
2835.9	1.92037
2837.22	1.63277
2838.54	1.98132
2839.86	2.2163
2841.18	3.38441
2842.5	4.0437
2843.83	4.53412
2845.15	5.33647
2846.47	5.24944
2847.79	6.08166
2849.11	6.4052
2850.43	7.44913
2851.75	7.41804
2853.07	7.32953
2854.39	7.12734
2855.71	7.06617
2857.03	6.76486
2858.35	7.29709
2859.66	6.64287
2860.98	6.75108
2862.3	7.35285
2863.62	7.3892
2864.94	7.74964
2866.25	7.54561
2867.57	8.16008
2868.89	8.35205
2870.2	8.89713
2871.52	8.70938
2872.84	8.43669
2874.15	8.75467
2875.47	9.22561
2876.78	9.0889
2878.1	9.64042
2879.41	9.16421
2880.73	9.19507
2882.04	9.52238
2883.36	9.73891
2884.67	9.36736
2885.99	9.65683
2887.3	9.34285
2888.61	9.57551
2889.93	9.54021
2891.24	10.1906
2892.55	10.2506
2893.86	10.2823
2895.18	10.3147
2896.49	10.2225
2897.8	10.3841
2899.11	9.79207
2900.42	10.1389
2901.73	10.6124
2903.05	10.4428
2904.36	10.9169
2905.67	11.3076
2906.98	11.1818
2908.29	11.3652
2909.6	11.6901
2910.91	11.3865
2912.21	11.4607
2913.52	11.7156
2914.83	11.8002
2916.14	12.2878
2917.45	11.8207
2918.76	12.5694
2920.07	12.3522
2921.37	12.6258
2922.68	13.1251
2923.99	13.1097
2925.29	13.2361
2926.6	13.9928
2927.91	12.9184
2929.22	13.5209
2930.52	12.7244
2931.83	13.6886
2933.13	13.2125
2934.44	13.2676
2935.74	13.5185
2937.05	14.0074
2938.35	13.0573
2939.66	12.5409
2940.96	11.8299
2942.26	11.5395
2943.57	10.0492
2944.87	10.937
2946.18	10.4427
2947.48	10.3829
2948.78	9.20297
2950.08	9.88271
2951.39	8.76767
2952.69	9.00797
2953.99	9.20416
2955.29	8.47585
2956.59	8.5329
2957.9	7.86517
2959.2	8.15328
2960.5	7.63329
2961.8	7.46618
2963.1	7.81913
2964.4	7.27337
2965.7	6.57043
2967	6.79212
2968.3	6.97001
2969.6	6.64073
2970.9	6.12834
2972.19	6.33369
2973.49	5.73758
2974.79	5.46497
2976.09	5.29005
2977.39	5.2402
2978.68	5.6387
2979.98	4.75381
2981.28	4.16328
2982.58	4.20552
2983.87	4.79652
2985.17	3.71613
2986.47	3.56571
2987.76	3.33294
2989.06	3.24203
2990.35	3.15157
2991.65	3.01845
2992.94	2.6312
2994.24	2.21454
2995.53	2.52727
2996.83	1.87022
2998.12	1.71881
2999.42	1.80638
3000.71	1.36179
3002	1.52101
3003.3	1.21834
3004.59	1.50444
3005.88	1.01997
3007.18	1.05325
3008.47	0.98776
3009.76	0.851553
3011.05	0.82661
3012.34	0.284779
3013.64	0.469346
3014.93	0.556635
3016.22	-0.0100336
3017.51	0.134972
3018.8	0.0996256
3020.09	0.481765
3021.38	0.112617
3022.67	0.215435
3023.96	-0.0297174
3025.25	-0.164157
3026.54	0.269441
3027.83	0.246244
3029.12	0.0308771
3030.41	-0.127165
3031.69	0.18621
3032.98	-0.217232
3034.27	-0.123069
3035.56	0.136212
3036.84	0.0079937
3038.13	0.16757
3039.42	-0.0602884
3040.71	0.0407839
3041.99	0.250615
3043.28	-0.252739
3044.57	-0.0692606
3045.85	-0.116775
3047.14	-0.175426
3048.42	0.1509
3049.71	0.274639
3050.99	0.441154
3052.28	0.51324
3053.56	-0.069397
3054.85	0.548151
3056.13	0.359856
3057.41	0.470622
3058.7	0.430746
3059.98	0.254688
3061.26	-0.0430517
3062.55	0.191167
3063.83	0.34527
3065.11	0.406008
3066.39	0.61797
3067.68	0.110646
3068.96	-0.00181961
3070.24	0.00808048
3071.52	0.00373077
3072.8	0.678309
3074.08	0.127959
3075.36	0.202357
3076.65	-0.212282
3077.93	0.0527821
3079.21	-0.0338244
3080.49	-0.105067
3081.77	-0.201632
3083.04	0.0288701
3084.32	-0.065259
3085.6	0.234511
3086.88	0.167653
3088.16	0.127467
3089.44	0.141136
3090.72	0.0867438
3091.99	0.303829
3093.27	-0.0348639
3094.55	0.169591
3095.83	-0.113577
3097.1	0.213749
3098.38	0.947772
3099.66	0.285944
3100.93	0.234232
3102.21	0.08812
3103.49	0.416498
3104.76	0.271785
3106.04	0.195828
3107.31	0.405264
3108.59	0.643112
3109.86	0.313896
3111.14	0.324288
3112.41	0.796276
3113.69	0.429224
3114.96	0.861924
3116.23	0.535402
3117.51	0.289549
3118.78	0.734658
3120.05	0.744942
3121.33	0.89018
3122.6	0.791112
3123.87	1.03087
3125.14	1.08143
3126.41	1.01095
3127.69	0.562641
3128.96	1.04872
3130.23	0.561682
3131.5	1.17032
3132.77	0.859953
3134.04	1.04958
3135.31	1.03636
3136.58	1.54917
3137.85	1.10395
3139.12	1.19828
3140.39	1.25225
3141.66	1.53528
3142.93	1.402
3144.2	1.21612
3145.47	1.16575
3146.74	1.61257
3148	1.40337
3149.27	1.89174
