200.554	0.788879
202.369	0.811085
204.183	0.834368
205.999	0.56694
207.813	0.324318
209.626	0.494378
211.439	0.152945
213.253	-0.408003
215.065	0.776873
216.877	0.577915
218.688	0.742623
220.5	0.569034
222.312	0.396781
224.123	0.467487
225.933	0.32128
227.742	0.320181
229.552	0.0288725
231.361	0.0267992
233.171	-0.216807
234.98	0.215348
236.787	-0.0744724
238.595	0.216645
240.402	-0.212514
242.209	0.325127
244.015	-0.293293
245.822	-0.115982
247.627	0.156224
249.435	-0.202348
251.24	0.32885
253.045	0.349785
254.849	0.995888
256.653	0.724731
258.457	-0.388578
260.26	0.620804
262.063	0.523971
263.866	-0.510491
265.668	-0.315243
267.47	-0.601616
269.271	-0.117115
271.073	0.848797
272.873	0.173949
274.674	0.895803
276.474	-0.16828
278.274	0.69384
280.073	0.517181
281.872	-0.0949049
283.671	0.542291
285.47	-0.336864
287.268	0.00884914
289.065	0.353876
290.863	0.244013
292.66	-0.055625
294.456	0.579763
296.253	0.331589
298.049	-0.249746
299.844	-0.232881
301.637	0.452451
303.432	-0.702087
305.227	0.171411
307.021	0.375132
308.815	0.0778046
310.609	0.114986
312.402	-0.465717
314.195	0.598701
315.987	-0.144586
317.777	0.209486
319.569	0.327265
321.36	-0.030242
323.151	0.566663
324.942	0.37728
326.733	0.593687
328.521	0.332171
330.31	0.212996
332.1	0.307561
333.889	0.44803
335.677	0.705691
337.464	0.482038
339.252	1.21292
341.039	0.171805
342.826	0.158462
344.611	0.45568
346.398	0.442776
348.184	0.144151
349.97	0.275926
351.754	-0.260668
353.539	-0.177273
355.324	0.525049
357.106	0.986795
358.89	-0.0547857
360.674	0.237141
362.455	0.337206
364.239	0.198462
366.021	0.866794
367.804	0.251342
369.584	-0.0320177
371.366	0.442117
373.145	-0.552416
374.926	0.109036
376.707	0.131751
378.485	-0.198663
380.265	-0.0798407
382.045	-0.0305357
383.822	0.655177
385.601	0.260245
387.378	-0.0154295
389.156	-0.0547504
390.934	-0.421775
392.71	-0.787856
394.487	-0.0495234
396.262	0.689208
398.038	0.159861
399.813	0.522743
401.588	0.368391
403.362	0.495118
405.137	-0.248015
406.912	-0.451725
408.685	-0.02215
410.459	0.54772
412.23	-0.149872
414.004	0.279558
415.775	-0.0645771
417.548	0.155342
419.318	-0.257619
421.089	0.127565
422.86	0.207395
424.63	0.0985889
426.401	-0.152137
428.17	-0.0516739
429.94	0.0717163
431.708	0.312406
433.478	0.459565
435.245	-0.261257
437.012	-0.0433598
438.781	0.783895
440.547	-0.408774
442.315	0.273443
444.081	0.0617075
445.846	0.29321
447.613	0.195308
449.378	0.0736837
451.142	0.0224771
452.908	0.298511
454.672	0.690966
456.435	0.0573187
458.2	0.0299606
459.963	0.537932
461.725	-0.0701475
463.489	-0.14117
465.251	0.90585
467.012	0.283099
468.775	-0.057868
470.536	0.719215
472.296	0.706647
474.056	0.832829
475.817	0.071909
477.576	0.239935
479.335	0.638832
481.094	0.663879
482.854	0.526122
484.612	-0.00617218
486.37	0.162462
488.127	1.03291
489.886	0.507383
491.642	0.79934
493.398	0.0411072
495.154	0.147045
496.91	0.39353
498.667	0.218374
500.422	0.722467
502.176	0.545964
503.93	0.368123
505.684	0.094676
507.438	0.807025
509.191	0.365426
510.946	0.698196
512.698	0.629137
514.45	-0.0534534
516.202	-0.125741
517.954	0.0593548
519.705	0.384222
521.456	0.825407
523.206	0.701986
524.956	-0.219533
526.706	0.197001
528.456	0.0973158
530.207	0.864635
531.956	0.0848637
533.704	0.569001
535.452	0.700248
537.2	0.525821
538.947	0.60686
540.694	-0.293037
542.441	0.229008
544.188	0.772633
545.934	0.478485
547.68	0.115635
549.425	-0.153374
551.17	0.087863
552.915	0.259388
554.659	0.754237
556.403	-0.0903158
558.145	0.54303
559.889	-0.897638
561.632	-0.28656
563.375	-0.0668449
565.117	0.199175
566.859	0.212925
568.601	-0.139718
570.342	0.151712
572.083	-0.0142803
573.824	0.234569
575.565	0.026659
577.303	0.348357
579.043	0.212678
580.782	-0.151943
582.521	-0.264061
584.26	0.174872
585.998	0.244995
587.734	0.221693
589.472	-0.217131
591.21	0.355303
592.947	-0.154194
594.684	0.555542
596.418	0.230018
598.154	0.617662
599.89	-0.0764246
601.626	0.355795
603.361	0.533397
605.094	0.456287
606.828	0.0330696
608.562	-0.321687
610.296	0.150039
612.027	0.461261
613.761	-0.212742
615.493	0.0312939
617.224	-0.0912304
618.956	0.106341
620.688	0.0278111
622.419	0.268212
624.149	0.0958776
625.879	-0.441662
627.61	-0.132622
629.338	0.064271
631.068	0.697291
632.797	0.0776529
634.525	0.577387
636.254	0.0496149
637.98	0.455677
639.708	-0.556451
641.436	0.116837
643.162	0.239525
644.889	-0.663898
646.614	0.0952311
648.34	0.150709
650.067	-0.108331
651.791	-0.294785
653.516	0.295844
655.239	-0.0417166
656.964	0.852314
658.687	-0.0971737
660.411	-0.615607
662.133	0.0737181
663.857	0.32725
665.58	0.0752678
667.301	0.461301
669.024	0.000424385
670.744	-0.0707884
672.464	-0.46029
674.186	0.137179
675.905	0.187832
677.626	0.217025
679.345	0.476086
681.065	0.251688
682.783	0.00185108
684.503	-0.0895338
686.22	0.369476
687.939	0.32023
689.656	0.500105
691.372	0.517913
693.09	0.189469
694.806	0.136606
696.523	0.0135489
698.239	0.487758
699.953	-0.213327
701.67	0.0508862
703.384	-0.0309792
705.098	0.644372
706.813	-0.448931
708.526	0.178819
710.239	0.507274
711.954	0.376901
713.666	0.0405817
715.378	0.595843
717.091	0.23682
718.802	0.197911
720.513	-0.0230522
722.226	-0.152394
723.936	0.241838
725.646	1.13536
727.355	0.936816
729.067	0.284297
730.776	0.947327
732.484	-0.180442
734.192	0.096509
735.902	0.463363
737.61	0.513842
739.317	0.542457
741.024	0.369283
742.731	0.670757
744.439	0.388082
746.145	0.624853
747.851	0.773065
749.556	0.630345
751.262	1.05143
752.966	0.664301
754.673	1.08857
756.377	0.502075
758.081	0.389676
759.784	0.887089
761.487	1.7021
763.19	0.736374
764.892	0.852743
766.594	0.900176
768.296	0.990773
770	0.784994
771.701	1.23268
773.402	1.70139
775.102	0.835497
776.803	1.25914
778.503	2.04613
780.202	0.912784
781.901	1.34114
783.6	1.54357
785.299	0.952459
786.997	1.82992
788.695	0.983425
790.393	2.4862
792.09	1.2038
793.787	0.847576
795.484	0.807567
797.18	0.791226
798.877	1.83522
800.572	1.75467
802.268	1.65337
803.963	1.37302
805.658	1.29501
807.35	2.02498
809.044	2.05662
810.738	1.41359
812.432	1.44312
814.125	1.83043
815.818	1.4781
817.51	1.28289
819.202	1.55739
820.894	1.63069
822.584	1.05731
824.275	1.97953
825.966	1.56535
827.657	1.88915
829.347	1.59254
831.037	1.25498
832.725	1.67802
834.414	2.23765
836.103	1.46077
837.792	2.11109
839.481	1.71117
841.167	2.0685
842.854	1.37437
844.542	1.2381
846.229	1.03555
847.914	1.63991
849.6	1.48707
851.287	1.53846
852.973	1.52494
854.656	1.64706
856.341	0.915597
858.026	0.541141
859.711	1.22184
861.393	0.955699
863.077	1.29571
864.761	1.76976
866.442	1.36383
868.125	1.58832
869.808	1.02299
871.489	1.74289
873.171	1.19937
874.85	1.80638
876.532	1.08212
878.213	0.786513
879.892	1.43878
881.572	1.97786
883.251	1.0487
884.931	0.863245
886.61	1.17277
888.287	0.622972
889.966	1.42486
891.643	0.962098
893.321	1.35417
894.997	1.09174
896.675	1.81757
898.352	0.946436
900.028	0.143416
901.704	0.842371
903.379	1.09152
905.055	1.38452
906.729	0.78436
908.404	0.765977
910.077	0.882277
911.75	0.843646
913.425	1.0281
915.097	0.368917
916.771	1.15283
918.443	1.04877
920.116	1.54283
921.787	1.41734
923.46	1.73551
925.13	1.5472
926.8	0.743143
928.472	1.19972
930.141	0.907215
931.813	1.16717
933.481	1.05235
935.15	1.24657
936.82	1.11045
938.488	1.15183
940.156	1.41522
941.825	1.34924
943.492	0.600018
945.158	1.66009
946.827	0.997303
948.493	0.288165
950.158	1.07779
951.824	0.453668
953.491	0.95486
955.156	1.3254
956.82	1.36848
958.486	0.224237
960.15	0.428419
961.814	0.391554
963.477	0.398633
965.142	0.182601
966.804	0.472279
968.467	0.427032
970.129	0.180375
971.79	0.662814
973.454	1.07932
975.115	0.745635
976.776	0.391914
978.436	1.19008
980.096	1.13748
981.756	1.08433
983.417	1.32838
985.077	1.01666
986.736	1.03456
988.394	0.983976
990.052	0.644543
991.71	0.59205
993.368	0.959088
995.025	0.729839
996.682	0.589239
998.341	1.08816
999.998	1.49807
1001.65	1.40051
1003.31	1.17053
1004.97	0.962478
1006.62	1.04026
1008.28	1.14005
1009.93	1.13039
1011.58	1.16513
1013.24	0.258017
1014.89	0.578986
1016.54	0.418477
1018.2	0.455653
1019.85	1.56538
1021.5	0.511127
1023.16	1.46966
1024.81	0.134302
1026.46	0.985113
1028.11	0.612163
1029.76	1.09054
1031.41	0.933883
1033.06	1.01557
1034.71	1.26975
1036.36	0.998718
1038.01	1.88169
1039.66	2.4367
1041.31	1.75203
1042.95	1.54816
1044.6	2.04195
1046.25	1.62562
1047.9	1.86335
1049.54	1.40816
1051.19	1.5626
1052.84	1.65291
1054.48	1.5264
1056.13	2.22575
1057.77	2.44674
1059.42	2.6889
1061.06	2.97372
1062.71	3.214
1064.35	2.30059
1066	1.27734
1067.64	1.44854
1069.28	1.42292
1070.93	1.13595
1072.57	1.65223
1074.21	1.51779
1075.85	1.40645
1077.49	1.60043
1079.13	1.27545
1080.78	1.16826
1082.42	1.86332
1084.06	0.952672
1085.7	1.2326
1087.34	1.24984
1088.97	0.853159
1090.61	0.99587
1092.25	1.22341
1093.89	1.55793
1095.53	1.61161
1097.17	2.05426
1098.8	1.59334
1100.44	1.43662
1102.08	1.39002
1103.71	0.635725
1105.35	1.38889
1106.99	1.54034
1108.62	1.36876
1110.26	0.937865
1111.89	0.655785
1113.52	0.500965
1115.16	1.80463
1116.79	1.77584
1118.43	0.975538
1120.06	1.18403
1121.69	1.0081
1123.32	1.09045
1124.96	1.34508
1126.59	2.47756
1128.22	2.45579
1129.85	2.41358
1131.48	1.96595
1133.11	0.385743
1134.75	1.52031
1136.37	1.20048
1138	0.772646
1139.63	0.343661
1141.26	0.298179
1142.89	0.444235
1144.52	0.355737
1146.15	0.523953
1147.78	0.501368
1149.4	-0.01021
1151.03	0.799576
1152.66	0.565525
1154.28	-0.201038
1155.91	-0.0311689
1157.54	0.329953
1159.16	0.648761
1160.79	0.755787
1162.41	-0.0288982
1164.04	0.144404
1165.66	0.594661
1167.29	0.576813
1168.91	0.111243
1170.53	0.0690098
1172.16	-0.230293
1173.78	0.126948
1175.4	-0.0268087
1177.02	-0.0536814
1178.65	0.301007
1180.27	0.211502
1181.89	0.10199
1183.51	-0.196925
1185.13	-0.157448
1186.75	0.113169
1188.37	-0.377969
1189.99	0.162394
1191.61	0.110007
1193.23	0.161203
1194.85	-0.27148
1196.47	-0.199721
1198.08	0.37538
1199.7	-0.178154
1201.32	0.588315
1202.94	-0.292747
1204.55	0.144761
1206.17	0.12532
1207.79	0.733172
1209.4	0.882248
1211.02	0.48802
1212.63	0.154565
1214.25	0.985768
1215.86	-0.248013
1217.48	0.0784664
1219.09	0.0499735
1220.71	0.353576
1222.32	0.304846
1223.93	0.423394
1225.54	-0.056942
1227.16	0.665153
1228.77	0.250561
1230.38	-0.224314
1231.99	0.563283
1233.6	1.1453
1235.22	0.633331
1236.83	0.164034
1238.44	0.58468
1240.05	0.737427
1241.66	0.890442
1243.26	1.35344
1244.87	0.739704
1246.48	0.621306
1248.09	1.72261
1249.7	0.319353
1251.31	0.943462
1252.92	1.09195
1254.52	0.889662
1256.13	0.916163
1257.74	1.06821
1259.34	1.24238
1260.95	0.879472
1262.55	0.868866
1264.16	1.02398
1265.76	1.01293
1267.37	1.35341
1268.97	1.29899
1270.58	1.61655
1272.18	1.84992
1273.78	1.21125
1275.39	2.08473
1276.99	1.34034
1278.59	1.96259
1280.2	2.06597
1281.8	1.89985
1283.4	1.7961
1285	1.58973
1286.6	1.96342
1288.2	2.56556
1289.8	3.02399
1291.4	4.06154
1293	4.10697
1294.6	4.52313
1296.2	3.9872
1297.8	3.51131
1299.4	3.11615
1301	3.9358
1302.6	3.33119
1304.19	2.89101
1305.79	2.86188
1307.39	3.07858
1308.99	3.13033
1310.58	2.46478
1312.18	2.31291
1313.77	1.77375
1315.37	2.40145
1316.96	2.00848
1318.56	2.2492
1320.15	1.91858
1321.75	2.07618
1323.34	1.80427
1324.94	1.55116
1326.53	1.82481
1328.12	1.26598
1329.72	1.60013
1331.31	2.25898
1332.9	1.48478
1334.49	2.53157
1336.08	1.84369
1337.67	2.30674
1339.27	1.90167
1340.86	2.15973
1342.45	1.54947
1344.04	1.58133
1345.63	0.849049
1347.22	1.50225
1348.8	1.31481
1350.39	1.93109
1351.98	1.48956
1353.57	0.990875
1355.16	1.33343
1356.75	1.3365
1358.33	1.57874
1359.92	1.67991
1361.51	1.24084
1363.09	1.24011
1364.68	2.25569
1366.27	1.39761
1367.85	1.21848
1369.44	1.51866
1371.02	2.13875
1372.61	1.52661
1374.19	1.71179
1375.77	1.45999
1377.36	1.54653
1378.94	1.11507
1380.52	1.27939
1382.11	1.22331
1383.69	1.00668
1385.27	0.967999
1386.85	1.72352
1388.43	1.1481
1390.02	1.28853
1391.6	1.58865
1393.18	1.43326
1394.76	1.31802
1396.34	1.73796
1397.92	2.07751
1399.5	2.03909
1401.08	1.60345
1402.65	1.30614
1404.23	1.68177
1405.81	1.26673
1407.39	2.01918
1408.97	2.08058
1410.54	2.71534
1412.12	2.08589
1413.7	2.10749
1415.27	2.38443
1416.85	2.08817
1418.43	2.58014
1420	2.50079
1421.58	3.46647
1423.15	2.81949
1424.73	2.8441
1426.3	3.71662
1427.87	3.66478
1429.45	4.12426
1431.02	4.85796
1432.6	5.76685
1434.17	6.20171
1435.74	6.53732
1437.31	7.62018
1438.89	7.11163
1440.46	7.07662
1442.03	6.74841
1443.6	6.38202
1445.17	6.48792
1446.74	6.33858
1448.31	5.73736
1449.88	5.39204
1451.45	5.71586
1453.02	6.15861
1454.59	5.85459
1456.16	5.84548
1457.72	5.06781
1459.29	5.25241
1460.86	4.66695
1462.43	5.02332
1463.99	4.62979
1465.56	4.23511
1467.13	3.48682
1468.69	3.38773
1470.26	3.52542
1471.83	2.8406
1473.39	2.76552
1474.95	1.9659
1476.52	1.63757
1478.08	2.11321
1479.65	1.92219
1481.21	1.3195
1482.78	1.50074
1484.34	1.64257
1485.9	1.43128
1487.47	1.82628
1489.03	0.986043
1490.59	1.02496
1492.15	0.650781
1493.71	0.763136
1495.27	1.10738
1496.84	0.611801
1498.39	1.03179
1499.96	0.946102
1501.52	0.803603
1503.07	0.837266
1504.64	0.774955
1506.19	0.383961
1507.75	0.515113
1509.31	0.818701
1510.87	0.618648
1512.43	0.533761
1513.98	0.410201
1515.54	0.325623
1517.1	0.241916
1518.65	0.0825424
1520.21	0.671152
1521.77	0.4551
1523.32	0.54492
1524.88	0.0609617
1526.44	0.54945
1527.99	0.711976
1529.54	0.664304
1531.1	0.275043
1532.65	-0.131523
1534.21	0.259188
1535.76	0.0826721
1537.31	0.833282
1538.87	0.129822
1540.42	0.220065
1541.97	0.573938
1543.52	0.0801678
1545.07	-0.0932455
1546.63	0.240549
1548.18	0.010644
1549.73	0.249737
1551.28	0.844286
1552.83	3.75772
1554.38	4.03202
1555.93	3.76628
1557.48	3.63401
1559.03	0.929692
1560.57	1.40033
1562.12	0.249732
1563.67	1.18972
1565.22	0.973668
1566.77	1.26151
1568.31	0.354647
1569.86	0.380461
1571.41	0.331207
1572.95	1.047
1574.5	0.679957
1576.05	0.648957
1577.59	0.487494
1579.14	0.345119
1580.68	0.838224
1582.23	0.940145
1583.77	1.1738
1585.31	0.997265
1586.86	1.21375
1588.4	0.944215
1589.95	0.730335
1591.49	1.11482
1593.03	1.29306
1594.57	1.37745
1596.11	1.46194
1597.66	1.84685
1599.2	1.52031
1600.74	1.21302
1602.28	1.31884
1603.82	1.57493
1605.36	1.19168
1606.9	1.89662
1608.44	1.15229
1609.98	1.15715
1611.52	1.25341
1613.06	1.83568
1614.6	1.53376
1616.13	0.969213
1617.67	1.26812
1619.21	1.38067
1620.75	1.0828
1622.28	1.16105
1623.82	1.37117
1625.36	1.56251
1626.89	1.11658
1628.43	1.06232
1629.96	1.43668
1631.5	1.00589
1633.04	1.06081
1634.57	1.20935
1636.11	0.910854
1637.64	1.34094
1639.17	1.8273
1640.71	1.47468
1642.24	1.56869
1643.77	1.58687
1645.31	1.6595
1646.84	1.54506
1648.37	0.761559
1649.9	1.66927
1651.43	1.22232
1652.96	1.98278
1654.5	1.29774
1656.03	1.3552
1657.56	1.67191
1659.09	1.52445
1660.62	0.783306
1662.15	1.37343
1663.67	1.36996
1665.2	0.793359
1666.73	1.36226
1668.26	0.972582
1669.79	1.15635
1671.32	1.82061
1672.84	0.938422
1674.37	1.30938
1675.9	1.58779
1677.43	1.49702
1678.95	0.724468
1680.48	0.999535
1682	0.373168
1683.53	1.27127
1685.05	1.17742
1686.58	0.772335
1688.1	0.423186
1689.63	1.08231
1691.15	0.53263
1692.68	0.550858
1694.2	1.20916
1695.72	0.733155
1697.25	0.622794
1698.77	0.731311
1700.29	0.182246
1701.81	0.362824
1703.33	0.834112
1704.86	0.120478
1706.38	0.772076
1707.9	0.713305
1709.42	1.14494
1710.94	0.61414
1712.46	1.17232
1713.98	0.407238
1715.5	0.277027
1717.02	0.707648
1718.54	-0.0191994
1720.06	1.06075
1721.57	0.443191
1723.09	0.0435534
1724.61	0.43822
1726.13	0.599745
1727.64	0.456558
1729.16	0.620402
1730.68	0.961774
1732.19	0.461814
1733.71	0.781907
1735.23	0.866886
1736.74	0.52332
1738.26	1.27413
1739.77	0.765285
1741.29	0.880772
1742.8	0.523046
1744.31	0.561925
1745.83	0.419503
1747.34	0.202438
1748.85	0.719877
1750.37	0.417253
1751.88	0.797544
1753.39	0.620235
1754.91	-0.011817
1756.42	0.171207
1757.93	0.0432615
1759.44	-0.240014
1760.95	-0.0810947
1762.46	0.206946
1763.97	-0.0441303
1765.48	0.237082
1766.99	0.375424
1768.5	-0.100856
1770.01	0.159839
1771.52	-0.156605
1773.03	-0.224252
1774.54	-0.121288
1776.04	-0.193697
1777.55	0.0806818
1779.06	-0.0345001
1780.57	0.168996
1782.07	0.351125
1783.58	0.138472
1785.09	-0.0432663
1786.59	0.186064
1788.1	0.119366
1789.6	-0.0681438
1791.11	0.0314627
1792.61	0.125439
1794.12	0.0458746
1795.62	0.127063
1797.13	-0.335062
1798.63	0.0859776
1800.13	0.0932207
1801.64	0.15169
1803.14	-0.130714
1804.64	0.0996542
1806.15	-0.0120296
1807.65	0.165882
1809.15	0.327349
1810.65	0.025897
1812.15	0.0592489
1813.65	0.0857716
1815.16	0.11571
1816.66	-0.0836449
1818.15	-0.0612822
1819.66	-0.0602942
1821.16	-0.0752974
1822.65	0.0138102
1824.15	-0.0300341
1825.65	0.0347176
1827.15	0.0313826
1828.65	-0.0378437
1830.15	-0.0391073
1831.64	0.11275
1833.14	-0.0286598
1834.64	0.100896
1836.14	0.213003
1837.63	0.246647
1839.13	0.244498
1840.62	-0.0026083
1842.12	-0.424646
1843.62	-0.465433
1845.11	0.177911
1846.61	0.199861
1848.1	0.329929
1849.6	-0.0250397
1851.09	0.184325
1852.58	0.146476
1854.08	0.230632
1855.57	0.271555
1857.06	-0.102274
1858.55	0.267593
1860.05	0.177003
1861.54	0.0911274
1863.03	0.506578
1864.52	0.36995
1866.01	-0.359006
1867.5	0.299948
1869	0.374477
1870.49	0.0853777
1871.98	0.0299835
1873.47	0.185061
1874.96	0.323606
1876.44	-0.344542
1877.93	0.401504
1879.42	-0.0423517
1880.91	0.101182
1882.4	0.441536
1882.47	0.460539
1883.96	0.269359
1885.46	-0.0967245
1886.95	0.390131
1888.44	0.144812
1889.94	-0.0304947
1891.43	0.0561485
1892.93	0.0399466
1894.42	0.199367
1895.91	0.238621
1897.4	-0.0690889
1898.89	-0.220438
1900.39	-0.0248299
1901.88	0.464966
1903.37	-0.142835
1904.86	0.27403
1906.35	0.498563
1907.84	-0.00654888
1909.33	0.218412
1910.82	0.392048
1912.31	0.479755
1913.8	-0.26449
1915.29	-0.0372858
1916.77	-0.382601
1918.26	-0.572255
1919.75	0.433333
1921.24	0.104435
1922.73	0.278278
1924.21	-0.360809
1925.7	-0.115811
1927.19	0.112883
1928.67	-0.194486
1930.16	0.0868216
1931.64	-0.0481892
1933.13	0.369538
1934.61	-0.0282316
1936.1	-0.0985689
1937.58	-0.187267
1939.07	0.13838
1940.55	0.0321589
1942.04	-0.00410461
1943.52	0.391926
1945	0.357411
1946.49	0.168159
1947.97	0.116689
1949.45	0.512444
1950.93	0.114811
1952.42	-0.162827
1953.9	-0.131142
1955.38	0.0378714
1956.86	0.378742
1958.34	-0.30991
1959.82	-0.0021944
1961.3	0.134295
1962.78	0.202314
1964.26	0.252975
1965.74	-0.296267
1967.22	0.164239
1968.7	-0.248788
1970.18	-0.183222
1971.65	0.0698872
1973.13	0.0153303
1974.61	0.302061
1976.09	0.571512
1977.57	0.414949
1979.04	0.00336742
1980.52	0.000556946
1982	0.541538
1983.47	0.1642
1984.95	0.0926123
1986.42	0.258335
1987.9	0.440715
1989.37	-0.274415
1990.85	0.179769
1992.32	0.109962
1993.8	-0.24621
1995.27	-0.00984955
1996.75	0.125407
1998.22	0.10856
1999.69	0.209499
2001.17	-0.0783548
2002.64	0.0721207
2004.11	0.374022
2005.58	0.0356245
2007.05	0.371952
2008.53	0.540583
2010	0.390122
2011.47	0.0382404
2012.94	0.292437
2014.41	0.37788
2015.88	0.765372
2017.35	0.0585098
2018.82	0.057478
2020.29	0.207133
2021.76	0.339684
2023.23	0.203833
2024.7	0.152733
2026.16	0.30407
2027.63	0.557363
2029.1	0.560527
2030.57	0.69924
2032.03	0.31879
2033.5	0.54292
2034.97	0.162646
2036.44	0.453707
2037.9	0.038681
2039.37	0.497025
2040.83	0.283076
2042.3	0.237522
2043.76	0.024437
2045.23	0.434634
2046.69	0.627085
2048.16	-0.0221786
2049.62	-0.0151253
2051.08	-0.0427151
2052.55	0.501657
2054.01	0.538436
2055.47	0.286811
2056.94	0.185678
2058.4	0.5388
2059.86	0.301911
2061.32	0.183441
2062.79	0.116303
2064.25	0.0333042
2065.71	0.405637
2067.17	0.324388
2068.63	0.748631
2070.09	0.48314
2071.55	0.217637
2073.01	0.322359
2074.47	0.612075
2075.93	0.42998
2077.39	0.483277
2078.85	0.283583
2080.31	0.504439
2081.76	0.000740051
2083.22	0.540233
2084.68	0.0185652
2086.13	-0.0324364
2087.59	0.185052
2089.05	0.5868
2090.51	0.36643
2091.96	0.112632
2093.42	0.228175
2094.87	0.762612
2096.33	0.457924
2097.78	0.387468
2099.24	0.751642
2100.69	0.245313
2102.15	0.291389
2103.6	0.571939
2105.06	0.853391
2106.51	0.268448
2107.96	0.70231
2109.42	0.369268
2110.87	0.285971
2112.32	0.401464
2113.77	0.265425
2115.23	0.377644
2116.68	0.937656
2118.13	0.38406
2119.58	-0.00145912
2121.03	0.610616
2122.48	0.494329
2123.93	0.628242
2125.38	0.530642
2126.83	0.383101
2128.28	0.317566
2129.73	0.399924
2131.18	0.845356
2132.63	0.875678
2134.08	0.525407
2135.53	0.754943
2136.97	0.836914
2138.42	0.375261
2139.87	0.758282
2141.32	0.415643
2142.76	0.437719
2144.21	0.692029
2145.66	0.317791
2147.1	0.390011
2148.55	0.842642
2150	0.847408
2151.44	1.05004
2152.89	0.820923
2154.33	1.1709
2155.78	0.923944
2157.22	1.04151
2158.66	1.22599
2160.11	0.831941
2161.55	1.20165
2163	0.645035
2164.44	1.00165
2165.88	0.911351
2167.32	1.02023
2168.77	0.962029
2170.21	0.519548
2171.65	0.790165
2173.09	1.22536
2174.53	0.777534
2175.97	0.711765
2177.41	1.12836
2178.85	0.98029
2180.29	1.23217
2181.73	1.0859
2183.17	1.0732
2184.61	0.911073
2186.05	0.965223
2187.49	1.11924
2188.93	0.973799
2190.37	1.14454
2191.81	1.23184
2193.24	0.68576
2194.68	0.238329
2196.12	0.405293
2197.56	0.936377
2198.99	0.766859
2200.43	0.729479
2201.87	0.990813
2203.3	0.721451
2204.74	0.785079
2206.17	0.965634
2207.61	0.782093
2209.04	0.283921
2210.48	0.72895
2211.91	0.477802
2213.35	0.622976
2214.78	0.866898
2216.21	0.615822
2217.65	0.44858
2219.08	0.579473
2220.51	0.95838
2221.95	0.562593
2223.38	0.726583
2224.81	0.938524
2226.24	1.00043
2227.67	0.682461
2229.1	0.396681
2230.54	1.02948
2231.97	0.431581
2233.4	0.195369
2234.83	0.53265
2236.26	0.331222
2237.69	0.294817
2239.11	0.863897
2240.54	0.700422
2241.97	0.555063
2243.4	0.313047
2244.83	0.120301
2246.26	0.775166
2247.69	1.02071
2249.11	0.709706
2250.54	0.592373
2251.97	0.440958
2253.4	0.484124
2254.82	0.283727
2256.25	0.247293
2257.67	0.391515
2259.1	0.457148
2260.53	0.0874243
2261.95	0.482606
2263.38	0.359985
2264.8	0.85507
2266.23	0.66748
2267.65	0.41386
2269.07	0.435813
2270.5	0.0825958
2271.92	0.754526
2273.34	0.302819
2274.77	0.486282
2276.19	0.65371
2277.61	0.691006
2279.03	0.337126
2280.46	0.276515
2281.88	0.183138
2283.3	-0.0735302
2284.72	0.355078
2286.14	0.0495663
2287.56	0.266682
2288.98	0.239332
2290.4	0.506454
2291.82	0.00574589
2293.24	-0.0373755
2294.66	0.524812
2296.08	0.629084
2297.5	0.520503
2298.92	0.149747
2300.34	0.25412
2301.76	0.276858
2303.17	0.36549
2304.59	0.257385
2306.01	0.0834045
2307.43	0.533314
2308.84	0.0461483
2310.26	0.429583
2311.68	0.204272
2313.09	0.505284
2314.51	0.16493
2315.92	0.417755
2317.34	0.506792
2318.75	0.464483
2320.17	-0.0398874
2321.58	0.147306
2323	0.250407
2324.41	0.681446
2325.82	0.268726
2327.24	0.761704
2328.65	0.676538
2330.06	-0.13314
2331.48	0.491113
2332.89	-0.0855427
2334.3	0.408424
2335.71	0.37599
2337.12	0.112918
2338.54	0.0135336
2339.95	-0.00463772
2341.36	0.124137
2342.77	-0.453423
2344.18	0.0357437
2345.59	0.081974
2347	0.210294
2348.41	0.305749
2349.82	-0.335414
2351.23	0.331383
2352.64	0.277555
2354.04	-0.331859
2355.45	-0.0930548
2356.86	-0.115606
2358.27	-0.0243044
2359.68	0.115646
2361.08	-0.150394
2362.49	0.135369
2363.9	0.420417
2365.3	0.688616
2366.71	0.245283
2368.12	0.174737
2369.52	0.234305
2370.93	0.0692968
2372.33	0.131257
2373.74	0.306797
2375.14	0.659624
2376.55	0.110799
2377.95	-0.165073
2379.36	0.265059
2380.76	-0.0134268
2382.16	-0.212463
2383.57	-0.283738
2384.97	0.284765
2386.37	0.221139
2387.78	0.158454
2389.18	0.662998
2390.58	0.100458
2391.98	-0.157687
2393.38	0.0149937
2394.79	0.347287
2396.19	-0.0195656
2397.59	0.122984
2398.99	-0.00414562
2400.39	0.218717
2401.79	0.203533
2403.19	-0.0974712
2404.59	0.252311
2405.99	-0.160796
2407.39	0.441055
2408.78	0.0265894
2410.18	0.404776
2411.58	0.149013
2412.98	0.115913
2414.38	0.622276
2415.77	0.607445
2417.17	0.26144
2418.57	0.296238
2419.97	0.268052
2421.36	0.588232
2422.76	0.020998
2424.15	-0.134706
2425.55	0.0582037
2426.95	0.362554
2428.34	0.112957
2429.74	0.260542
2431.13	0.18677
2432.52	0.287692
2433.92	0.51529
2435.31	0.170088
2436.71	0.0934715
2438.1	0.778064
2439.49	0.508103
2440.89	0.157969
2442.28	0.315521
2443.67	0.298112
2445.06	-0.242892
2446.46	0.310382
2447.85	0.40345
2449.24	0.227114
2450.63	0.051125
2452.02	-0.0293007
2453.41	0.318232
2454.8	0.444908
2456.19	-0.313647
2457.58	0.399262
2458.97	0.162932
2460.36	0.305674
2461.75	0.336927
2463.14	0.256764
2464.53	0.460479
2465.92	-0.33122
2467.31	0.424657
2468.69	0.343534
2470.08	0.293832
2471.47	0.322565
2472.86	0.00404644
2474.24	-0.141599
2475.63	0.435969
2477.02	0.0849042
2478.4	-0.187141
2479.79	0.0592237
2481.17	-0.337543
2482.56	0.394332
2483.94	-0.174765
2485.33	0.38245
2486.72	0.0469384
2488.1	0.382173
2489.48	-0.0634003
2490.87	0.114587
2492.25	-0.0028019
2493.64	0.346856
2495.02	0.107539
2496.4	-0.316212
2497.79	-0.165468
2499.17	-0.324261
2500.55	-0.00361443
2501.93	0.207649
2503.31	0.0470462
2504.69	-0.206635
2506.08	0.140577
2507.46	0.163548
2508.84	0.201929
2510.22	-0.0204868
2511.6	-0.0884647
2512.98	-0.0176711
2514.36	0.252885
2515.74	0.0646591
2517.12	-0.000252724
2518.5	0.103578
2519.88	0.161618
2521.25	0.112443
2522.63	-0.0441203
2524.01	-0.0182061
2525.39	-0.739794
2526.77	0.336447
2528.14	0.0266333
2529.52	-0.0993052
2530.9	-0.0109253
2532.27	0.0485067
2533.65	0.215513
2535.03	0.00336647
2536.4	-0.482254
2537.78	0.0646009
2539.15	-0.224905
2540.53	0.16822
2541.9	0.317879
2543.28	0.0883412
2544.65	0.0113688
2546.03	-0.0341501
2547.4	0.239974
2548.77	0.0446448
2550.15	0.304572
2551.52	-0.0732555
2552.89	-0.0118494
2554.27	0.276224
2555.64	-0.0587044
2557.01	0.212705
2558.38	0.195712
2559.75	-0.245515
2561.12	-0.17077
2562.5	0.10152
2563.87	0.58645
2565.24	-0.170845
2566.61	0.102552
2567.98	0.194185
2569.35	0.0433335
2570.72	0.574504
2572.09	0.256935
2573.46	0.181933
2574.83	-0.059762
2576.19	-0.0740552
2577.56	0.275467
2578.93	0.245743
2580.3	0.291497
2581.67	0.427829
2583.04	-0.0123649
2584.4	0.0172453
2585.77	0.334787
2587.14	0.349227
2588.5	0.166812
2589.87	0.196687
2591.23	-0.0160122
2592.6	0.210306
2593.97	0.0570831
2595.33	-0.00614357
2596.7	0.202173
2598.06	0.409512
2599.43	0.49526
2600.79	0.641424
2602.15	0.500952
2603.52	0.2103
2604.88	0.0562272
2606.25	0.173977
2607.61	0.261186
2608.97	0.302318
2610.33	-0.0192442
2611.7	0.335695
2613.06	0.162595
2614.42	0.52986
2615.78	0.625971
2617.15	0.242367
2618.51	-0.0350933
2619.87	-0.131792
2621.23	0.654533
2622.59	0.528757
2623.95	-0.149133
2625.31	0.487025
2626.67	0.242238
2628.03	-0.0472341
2629.39	0.214367
2630.75	-0.0454021
2632.1	0.527648
2633.46	0.56496
2634.82	0.0529995
2636.18	0.253687
2637.54	0.335474
2638.89	0.0469995
2640.25	0.143774
2641.61	0.418041
2642.97	0.204649
2644.32	0.213161
2645.68	0.398622
2647.03	0.318076
2648.39	0.310634
2649.75	0.302409
2651.1	0.616952
2652.46	0.0787029
2653.81	-0.164843
2655.17	0.0617809
2656.52	0.65518
2657.88	0.238939
2659.23	0.423839
2660.58	0.418881
2661.94	0.516099
2663.29	0.0283852
2664.64	0.445493
2666	0.394512
2667.35	0.53258
2668.7	0.56837
2670.05	0.720753
2671.4	0.52447
2672.76	0.0965853
2674.11	0.105465
2675.46	0.114876
2676.81	0.269888
2678.16	0.338378
2679.51	0.20462
2680.86	0.434346
2682.21	0.128771
2683.56	0.186781
2684.91	0.970979
2686.26	0.0440235
2687.61	0.306536
2688.96	0.00188923
2690.3	0.639251
2691.65	-0.031641
2693	0.239482
2694.35	-0.0416403
2695.7	0.286027
2697.04	0.237289
2698.39	0.10291
2699.74	0.838929
2701.08	0.331382
2702.43	0.274143
2703.77	0.956914
2705.12	0.771005
2706.47	0.439947
2707.81	0.630716
2709.16	0.734143
2710.5	0.938909
2711.85	0.88205
2713.19	1.02844
2714.53	0.927747
2715.88	0.68153
2717.22	1.04588
2718.57	0.784611
2719.91	0.930271
2721.25	1.16283
2722.59	1.10385
2723.94	1.10256
2725.28	1.27549
2726.62	1.09867
2727.96	1.0234
2729.3	0.904238
2730.65	1.14871
2731.99	0.869322
2733.33	0.924669
2734.67	0.965643
2736.01	0.861374
2737.35	0.699093
2738.69	0.507725
2740.03	0.432486
2741.37	0.37134
2742.71	0.614865
2744.05	0.276247
2745.38	0.445701
2746.72	0.396768
2748.06	0.594434
2749.4	0.28415
2750.74	-0.025691
2752.07	0.360852
2753.41	0.356038
2754.75	0.235492
2756.09	-0.000714302
2757.42	-0.0918331
2758.76	0.0489459
2760.09	-0.0125952
2761.43	-0.0736575
2762.77	0.0249138
2764.1	0.0369744
2765.44	0.266069
2766.77	0.335567
2768.11	0.462018
2769.44	-0.280417
2770.77	0.392705
2772.11	-0.0194583
2773.44	0.174045
2774.77	-0.0946732
2776.11	0.112355
2777.44	0.333765
2778.77	-0.0486288
2780.11	0.130496
2781.44	0.0368319
2782.77	0.00080204
2784.1	-0.236019
2785.43	-0.0855765
2786.77	-0.0211058
2788.1	0.115332
2789.43	0.109292
2790.76	-0.110391
2792.09	-0.0289125
2793.42	0.496134
2794.75	0.0205727
2796.08	0.387948
2797.41	0.297493
2798.74	-0.0361819
2800.07	0.143796
2801.4	0.266296
2802.72	0.0605545
2804.05	0.0400438
2805.38	0.133088
2806.71	0.438939
2808.04	0.14636
2809.36	0.436498
2810.69	-0.0122662
2812.02	0.122039
2813.34	0.186354
2814.67	0.0819035
2816	0.134859
2817.32	0.231442
2818.65	0.527064
2819.97	0.170746
2821.3	0.876998
2822.62	0.987247
2823.95	0.799261
2825.27	0.894285
2826.6	1.04595
2827.92	1.05653
2829.25	1.30839
2830.57	1.61737
2831.89	1.67179
2833.22	2.50469
2834.54	2.77098
2835.86	3.34797
2837.18	4.12216
2838.51	5.17832
2839.83	6.36089
2841.15	7.4723
2842.47	8.90904
2843.79	10.2334
2845.11	10.6122
2846.43	11.7272
2847.76	11.8537
2849.08	12.7577
2850.4	11.8519
2851.72	12.3868
2853.04	12.2139
2854.36	11.7718
2855.67	11.7108
2856.99	11.1978
2858.31	11.363
2859.63	11.1469
2860.95	10.4786
2862.27	11.2924
2863.58	11.1877
2864.9	10.8849
2866.22	11.7532
2867.54	11.9163
2868.85	11.629
2870.17	12.4564
2871.49	13.0443
2872.8	13.2933
2874.12	14.3297
2875.43	15.2084
2876.75	16.5344
2878.07	16.9989
2879.38	18.4044
2880.7	17.4899
2882.01	17.379
2883.32	16.4702
2884.64	16.2382
2885.95	14.997
2887.27	14.9916
2888.58	14.8872
2889.89	14.0377
2891.21	14.0143
2892.52	13.6814
2893.83	13.7547
2895.14	14.3607
2896.46	13.5402
2897.77	13.422
2899.08	13.4878
2900.39	13.709
2901.7	14.085
2903.01	13.3844
2904.32	13.3835
2905.63	12.6978
2906.94	13.2999
2908.25	13.0643
2909.56	13.264
2910.87	12.975
2912.18	12.448
2913.49	13.1516
2914.8	13.0548
2916.11	13.1929
2917.42	12.9084
2918.72	13.1679
2920.03	13.3291
2921.34	13.4493
2922.65	14.5083
2923.95	13.347
2925.26	12.8168
2926.57	13.9792
2927.88	14.0794
2929.18	13.3961
2930.49	13.5926
2931.79	13.6345
2933.1	13.5223
2934.4	12.795
2935.71	13.2281
2937.01	12.8369
2938.32	13.2146
2939.62	12.2234
2940.93	12.1414
2942.23	11.5576
2943.54	10.9058
2944.84	10.6892
2946.14	9.85888
2947.45	9.47664
2948.75	9.30378
2950.05	8.77926
2951.35	8.50415
2952.66	8.73051
2953.96	8.43685
2955.26	8.29671
2956.56	8.17178
2957.86	8.25961
2959.16	7.48316
2960.46	7.20013
2961.77	7.60644
2963.07	7.15876
2964.37	6.19036
2965.66	6.65183
2966.96	6.31063
2968.26	6.10808
2969.56	5.60917
2970.86	5.32087
2972.16	4.97655
2973.46	4.77325
2974.76	4.79514
2976.06	4.94309
2977.35	4.03357
2978.65	4.17816
2979.95	4.12368
2981.25	3.71594
2982.54	3.56108
2983.84	3.37863
2985.14	3.4646
2986.43	2.87777
2987.73	2.54565
2989.02	2.69246
2990.32	2.31969
2991.62	2.53676
2992.91	2.23279
2994.21	2.12435
2995.5	1.55131
2996.8	1.73618
2998.09	1.69617
2999.38	1.22166
3000.68	1.21086
3001.97	1.31286
3003.26	1.00894
3004.56	0.747425
3005.85	1.5082
3007.14	0.448074
3008.43	1.06717
3009.73	0.44029
3011.02	0.987304
3012.31	0.444119
3013.6	0.445925
3014.89	-0.081533
3016.19	0.381572
3017.48	0.468993
3018.77	0.236874
3020.06	0.185994
3021.35	0.0236735
3022.64	0.18034
3023.93	0.0583787
3025.22	0.0330567
3026.5	0.437013
3027.79	0.0104799
3029.08	-0.0685339
3030.37	0.199475
3031.66	0.0129609
3032.95	0.255688
3034.24	0.00185394
3035.52	-0.141781
3036.81	-0.0795307
3038.1	-0.26685
3039.39	-0.0287919
3040.67	0.386047
3041.96	0.044055
3043.25	0.00459194
3044.53	-0.116013
3045.82	-0.0159531
3047.1	-0.433076
3048.39	0.0536761
3049.67	0.17359
3050.96	0.17229
3052.24	-0.360268
3053.53	0.239894
3054.81	-0.0609255
3056.1	0.223997
3057.38	-0.0511136
3058.67	0.477288
3059.95	0.160699
3061.23	0.171529
3062.52	0.278582
3063.8	0.278184
3065.08	0.279365
3066.36	-0.0850549
3067.65	-0.108538
3068.93	-0.0771422
3070.21	-0.0322204
3071.49	0.216103
3072.77	-0.0669489
3074.05	-0.0653563
3075.33	-0.050909
3076.61	0.343591
3077.89	-0.171236
3079.17	0.170266
3080.45	0.228219
3081.73	0.36917
3083.01	0.0366354
3084.29	-0.0509644
3085.57	-0.328377
3086.85	-0.14461
3088.13	0.364471
3089.41	-0.226339
3090.68	0.268326
3091.96	0.233706
3093.24	-0.058322
3094.52	-0.173512
3095.79	-0.0984297
3097.07	0.112441
3098.35	0.0116081
3099.62	-0.319477
3100.9	0.243761
3102.18	0.116238
3103.45	-0.119112
3104.73	0.0117273
3106	0.332792
3107.28	0.018764
3108.55	-0.267128
3109.83	-0.105332
3111.1	0.0440125
3112.38	0.275576
3113.65	0.236872
3114.93	0.510094
3116.2	0.240842
3117.47	0.41846
3118.75	0.50034
3120.02	0.540723
3121.29	0.566854
3122.57	0.118281
3123.84	0.794423
3125.11	0.766239
3126.38	0.711585
3127.65	0.698308
3128.92	0.726298
3130.2	0.551997
3131.47	0.337525
3132.74	0.623283
3134.01	0.827667
3135.28	0.599608
3136.55	0.708774
3137.82	0.601876
3139.09	0.508513
3140.36	1.03453
3141.63	0.954731
3142.9	0.98309
3144.17	0.622734
3145.43	0.853959
3146.7	1.09913
3147.97	1.0233
3149.24	0.948287
