200.563	2.61298
202.377	2.63046
204.194	2.64985
206.008	2.03938
207.821	1.74647
209.634	1.28308
211.449	1.52267
213.262	1.85682
215.074	1.82489
216.885	1.62266
218.699	1.32449
220.51	1.85131
222.321	2.35567
224.131	1.79809
225.941	0.831753
227.751	1.05037
229.562	1.02695
231.371	1.94402
233.18	1.07491
234.988	0.907047
236.796	1.12799
238.603	1.40176
240.411	0.837418
242.219	1.26641
244.026	0.227095
245.832	0.297108
247.638	1.06445
249.443	1.15079
251.248	0.796417
253.053	1.20928
254.857	0.919056
256.661	0.942101
258.465	0.075552
260.268	0.610523
262.071	1.87214
263.874	-0.235249
265.678	-0.124073
267.48	-0.976095
269.282	0.268314
271.083	0.233944
272.884	0.0286884
274.684	0.158381
276.484	-0.269421
278.284	-0.0257015
280.084	0.575293
281.883	-0.0798931
283.682	0.392675
285.48	0.501369
287.276	0.872499
289.074	0.69171
290.871	0.12978
292.668	0.409323
294.465	-1.29351
296.261	0.427235
298.057	0.165199
299.853	-0.0238762
301.648	1.07663
303.443	0.00208473
305.237	-0.286375
307.032	0.23473
308.823	0.826483
310.617	-0.0820007
312.41	-0.105982
314.203	0.278257
315.995	0.618637
317.788	-0.0850525
319.579	0.119312
321.369	0.254679
323.16	1.05962
324.951	1.12675
326.741	0.668955
328.531	-0.0287704
330.321	0.825338
332.108	0.936447
333.897	1.21169
335.686	0.525467
337.474	1.10284
339.26	0.790602
341.048	1.24076
342.835	0.159176
344.622	0.392656
346.406	0.746464
348.192	0.432981
349.978	1.00399
351.764	0.118908
353.547	0.0205116
355.332	-0.0798912
357.116	-0.0397396
358.901	0.28372
360.682	0.342554
362.466	0.0901661
364.249	0.431097
366.03	0.0335903
367.812	-0.317272
369.594	0.800854
371.374	0.280685
373.155	-0.476307
374.936	0.587271
376.715	0.208792
378.495	-0.191338
380.273	0.329836
382.053	0.146374
383.832	0.318573
385.609	-0.000492096
387.388	-1.02174
389.164	-0.113993
390.942	0.067194
392.72	0.484785
394.495	-0.0827942
396.272	1.06474
398.047	-0.159567
399.823	-0.303944
401.597	-0.684128
403.372	0.0383816
405.145	0.853224
406.92	1.03235
408.693	1.09276
410.467	0.471798
412.239	-0.266182
414.012	0.0763016
415.783	0.490503
417.556	-0.0322475
419.327	-0.0610676
421.099	-0.324152
422.869	-0.400105
424.64	0.085968
426.409	0.241533
428.18	0.84144
429.948	-0.343657
431.718	-0.0499306
433.486	0.00966835
435.253	-0.141327
437.022	0.716774
438.789	0.282537
440.558	0.361614
442.324	0.0612507
444.089	0.788294
445.857	-0.339922
447.622	-0.672899
449.386	-0.0474911
451.153	0.857321
452.917	-0.199541
454.682	0.494986
456.446	-0.373152
458.208	0.0405502
459.973	0.0581646
461.735	-0.713478
463.497	0.378086
465.259	-0.292273
467.022	0.599846
468.783	-0.175953
470.544	0.0743637
472.306	0.442369
474.066	-0.0756092
475.825	0.543695
477.585	0.646437
479.346	0.209709
481.104	0.609619
482.862	0.846775
484.62	0.504066
486.38	0.328203
488.137	0.319521
489.894	0.104889
491.65	0.732351
493.407	-0.460411
495.164	0.0523033
496.92	0.940268
498.675	0.376465
500.43	0.490788
502.184	1.14378
503.939	0.363049
505.694	0.284025
507.448	0.225599
509.201	0.422796
510.954	1.20509
512.706	1.04301
514.459	0.948397
516.21	1.58022
517.962	0.633512
519.715	1.16636
521.466	0.404902
523.216	1.31051
524.966	0.407467
526.716	1.92146
528.466	0.878294
530.215	1.05446
531.964	0.503471
533.712	0.91107
535.46	0.543802
537.208	0.688341
538.955	0.526232
540.703	0.735151
542.449	-0.245884
544.196	0.682175
545.942	0.794691
547.688	0.396719
549.433	0.347807
551.178	0.276236
552.923	0.0200958
554.667	0.13451
556.412	1.03394
558.155	-0.166
559.899	0.825836
561.642	0.712162
563.385	-0.527206
565.127	0.879522
566.867	0.682453
568.609	0.557892
570.35	1.68016
572.092	0.0857029
573.832	-0.518543
575.573	0.325888
577.313	0.0495129
579.053	0.165758
580.79	-0.129877
582.529	0.401583
584.268	0.0357513
586.006	1.69143
587.745	0.60784
589.482	0.947809
591.218	0.986799
592.955	0.449507
594.692	0.30303
596.428	0.363676
598.164	0.125118
599.898	-0.689354
601.634	-0.493244
603.369	0.0682392
605.104	-0.270136
606.836	0.216402
608.57	0.172617
610.304	0.10568
612.037	0.337963
613.769	0.0443001
615.501	0.14176
617.234	0.239408
618.966	0.908377
620.696	0.315527
622.427	-0.233454
624.159	-0.394787
625.887	0.540619
627.618	0.678007
629.348	0.842167
631.076	-0.129757
632.806	0.408403
634.535	0.46944
636.262	0.164448
637.99	0.951525
639.716	0.0211525
641.444	0.91021
643.172	0.106668
644.897	-0.0603676
646.624	0.296755
648.348	-0.18379
650.075	0.273972
651.801	0.580263
653.524	-0.287445
655.249	-0.035038
656.972	-0.369856
658.697	0.0714283
660.419	0.467026
662.143	1.01996
663.865	-0.0765839
665.588	-0.195951
667.309	-1.0966
669.032	0.265352
670.752	-0.154877
672.474	0.389643
674.194	0.573189
675.915	2.02202
677.634	2.83372
679.355	2.40698
681.073	0.942572
682.793	0.714397
684.511	1.12615
686.23	0.290617
687.947	0.441923
689.664	0.913599
691.382	0.807936
693.098	0.171192
694.816	0.0396976
696.531	0.228661
698.247	0.806475
699.963	-0.114361
701.678	0.918207
703.392	0.08605
705.108	0.264082
706.821	0.578531
708.534	0.020277
710.249	0.0349007
711.962	0.804237
713.674	1.41148
715.388	0.554726
717.099	1.77701
718.81	0.100414
720.523	0.569336
722.234	0.0814171
723.944	-0.064333
725.654	0.812832
727.365	0.688507
729.075	0.972017
730.784	0.2113
732.492	-0.458086
734.202	-0.515713
735.91	0.15016
737.618	0.702551
739.325	0.488289
741.034	0.727106
742.741	0.021965
744.447	1.52655
746.153	2.10995
747.859	1.09863
749.564	0.0229931
751.271	0.614447
752.976	0.466232
754.681	1.10813
756.385	1.37078
758.088	0.195723
759.792	0.644379
761.495	0.960524
763.2	1.05251
764.902	1.25695
766.604	0.532944
768.306	1.34178
770.008	1.24239
771.709	0.551006
773.41	1.86947
775.11	2.25989
776.811	1.34011
778.51	1.82485
780.21	2.10928
781.909	2.53186
783.608	1.89124
785.307	1.97226
787.005	1.14297
788.703	1.12243
790.401	1.95496
792.098	1.28937
793.795	2.04431
795.492	0.812399
797.188	0.936794
798.884	0.4562
800.58	1.01501
802.276	0.608601
803.971	1.5306
805.665	0.877949
807.36	0.741037
809.054	1.52269
810.748	0.528269
812.441	1.01346
814.135	1.22797
815.826	1.75509
817.518	1.23
819.21	1.53281
820.902	1.72384
822.594	1.37989
824.285	2.04141
825.976	2.0143
827.665	2.1253
829.355	2.08602
831.045	1.49617
832.735	1.53553
834.424	2.58222
836.111	1.58003
837.8	1.35732
839.488	2.04756
841.177	2.02037
842.864	2.12458
844.55	1.66931
846.237	0.96946
847.924	1.74856
849.61	1.90699
851.295	1.5109
852.98	1.56625
854.666	0.927896
856.349	1.09647
858.034	1.15075
859.719	1.60687
861.403	1.06924
863.085	1.2938
864.769	0.975153
866.452	1.24066
868.133	1.52764
869.816	0.934246
871.498	0.452841
873.179	-0.254656
874.86	1.27137
876.54	1.03765
878.221	1.45848
879.902	1.15687
881.58	1.21567
883.26	1.00211
884.938	1.23786
886.618	0.793636
888.297	1.63253
889.974	1.5655
891.653	1.40536
893.329	0.927507
895.007	1.28055
896.683	1.42853
898.36	0.967863
900.035	1.69513
901.712	0.62682
903.387	2.02133
905.063	1.43085
906.737	1.36192
908.412	1.34756
910.085	1.40252
911.76	0.546526
913.433	0.627026
915.107	0.574844
916.779	1.7429
918.452	1.82273
920.124	0.507936
921.797	0.634525
923.467	1.02853
925.138	1.16031
926.81	1.09703
928.48	0.706215
930.151	0.759413
931.82	1.18905
933.489	0.891153
935.16	0.726072
936.828	1.13541
938.496	0.796713
940.165	0.725195
941.833	1.03118
943.5	2.33177
945.168	0.652948
946.834	0.604691
948.5	1.56811
950.168	1.60045
951.834	1.03468
953.499	0.623968
955.163	1.31931
956.83	0.873749
958.494	0.456736
960.158	0.662962
961.821	0.430712
963.487	1.36937
965.15	0.580385
966.812	0.139278
968.474	0.046526
970.138	0.41433
971.8	0.293825
973.461	0.749435
975.123	1.07536
976.783	0.277203
978.446	0.123297
980.106	0.180815
981.766	0.237524
983.425	1.14383
985.084	1.44846
986.743	2.19129
988.402	2.00064
990.06	1.43164
991.72	1.98903
993.378	1.70621
995.035	2.17449
996.692	1.71598
998.349	2.40445
1000.01	2.01192
1001.66	2.4338
1003.32	1.84196
1004.97	1.75605
1006.63	0.593353
1008.28	1.25518
1009.94	1.32436
1011.59	0.232204
1013.25	1.37777
1014.9	0.288769
1016.55	1.0407
1018.21	0.523962
1019.86	0.862373
1021.51	1.94609
1023.16	0.474306
1024.81	0.294491
1026.47	1.42702
1028.12	1.31391
1029.77	2.07329
1031.42	2.45836
1033.07	1.87912
1034.72	2.21321
1036.37	4.06996
1038.02	3.87442
1039.67	3.85323
1041.31	5.46504
1042.96	5.40428
1044.61	4.43553
1046.26	5.18813
1047.91	4.62037
1049.55	3.81777
1051.2	3.97371
1052.84	3.19743
1054.49	2.76936
1056.14	2.68885
1057.78	2.52072
1059.43	2.5254
1061.07	2.15899
1062.72	2.46495
1064.36	2.07306
1066	1.98334
1067.65	2.5433
1069.29	1.14552
1070.93	1.26765
1072.58	0.673199
1074.22	1.29542
1075.86	1.44229
1077.5	1.2667
1079.14	1.54922
1080.78	1.46468
1082.42	1.70534
1084.06	0.881603
1085.7	1.74549
1087.34	1.21771
1088.98	1.53057
1090.62	1.19027
1092.26	1.47493
1093.9	1.36939
1095.54	2.10596
1097.17	0.68759
1098.81	1.38528
1100.45	2.04284
1102.09	1.34839
1103.72	1.19605
1105.36	1.39069
1106.99	1.86608
1108.63	1.22239
1110.27	1.80207
1111.9	0.916523
1113.53	0.393579
1115.17	0.985035
1116.8	1.1026
1118.43	2.29218
1120.07	1.63942
1121.7	1.8033
1123.33	1.62695
1124.97	3.20727
1126.6	3.41977
1128.23	2.75727
1129.86	2.46014
1131.49	1.33061
1133.12	1.16389
1134.75	1.78779
1136.38	1.85446
1138.01	2.38885
1139.64	3.86003
1141.27	2.89386
1142.9	2.05559
1144.53	1.79441
1146.16	1.64166
1147.78	0.617451
1149.41	1.3853
1151.04	0.343323
1152.67	0.600805
1154.29	0.452957
1155.92	-0.0148277
1157.54	0.602543
1159.17	0.773731
1160.8	0.436361
1162.42	0.165249
1164.05	-0.380152
1165.67	-0.0103092
1167.29	0.996822
1168.92	-0.294491
1170.54	-0.547274
1172.16	0.067297
1173.79	0.0832024
1175.41	0.49972
1177.03	0.448286
1178.65	0.206825
1180.28	0.856199
1181.9	0.13171
1183.52	1.26984
1185.14	0.230402
1186.76	-0.134054
1188.38	0.616879
1190	1.57311
1191.62	0.544357
1193.24	0.166874
1194.86	0.79653
1196.47	0.397396
1198.09	0.189817
1199.71	1.19933
1201.33	1.02097
1202.95	0.744183
1204.56	1.03663
1206.18	1.58373
1207.8	0.79825
1209.41	0.388916
1211.03	1.02076
1212.64	1.46101
1214.26	0.750092
1215.87	0.410295
1217.49	1.56514
1219.1	1.17798
1220.71	0.687716
1222.33	1.0087
1223.94	1.31107
1225.55	2.07168
1227.16	1.44828
1228.78	0.973284
1230.39	2.50683
1232	1.72706
1233.61	1.5909
1235.22	1.35408
1236.83	2.07059
1238.44	2.10726
1240.05	2.6003
1241.66	1.54266
1243.27	3.09056
1244.88	2.69225
1246.49	2.35372
1248.1	2.11647
1249.71	3.09839
1251.32	3.00373
1252.92	3.65431
1254.53	2.09334
1256.14	3.01688
1257.74	2.16421
1259.35	2.76219
1260.96	2.70001
1262.56	2.80448
1264.17	2.53616
1265.77	2.72264
1267.38	3.1771
1268.98	3.56745
1270.59	3.27137
1272.19	3.24246
1273.79	3.56373
1275.4	3.05357
1277	3.61914
1278.6	3.10541
1280.21	4.55776
1281.81	3.75233
1283.41	4.2512
1285.01	3.09666
1286.61	3.32999
1288.21	4.10289
1289.81	4.25763
1291.41	5.09537
1293.01	6.07726
1294.61	5.23913
1296.21	5.8852
1297.81	5.12319
1299.41	5.34829
1301.01	5.85813
1302.6	5.25194
1304.2	4.37708
1305.8	4.7563
1307.4	4.66125
1308.99	3.95034
1310.59	4.69595
1312.19	4.80633
1313.78	4.7138
1315.38	4.97112
1316.97	4.84231
1318.57	4.49055
1320.16	4.56707
1321.76	5.31344
1323.35	4.04033
1324.94	3.98551
1326.54	4.33375
1328.13	4.84208
1329.72	4.33826
1331.32	4.93141
1332.91	5.81144
1334.5	5.9484
1336.09	6.91633
1337.68	7.82393
1339.27	8.12399
1340.87	8.90255
1342.45	9.01004
1344.04	8.16739
1345.64	7.18345
1347.22	5.13992
1348.81	4.64725
1350.4	4.64147
1351.99	4.56154
1353.58	4.6063
1355.17	4.17424
1356.75	3.64325
1358.34	3.07162
1359.93	4.33535
1361.51	3.46005
1363.1	2.94291
1364.69	3.50217
1366.27	3.90199
1367.86	3.60627
1369.44	3.55237
1371.03	3.72054
1372.61	2.85699
1374.2	3.3092
1375.78	2.3699
1377.37	4.31604
1378.95	2.77873
1380.53	3.36835
1382.11	3.63663
1383.7	2.82809
1385.28	2.93242
1386.86	2.89667
1388.44	3.37762
1390.02	3.14506
1391.6	3.8869
1393.19	3.24141
1394.77	3.92581
1396.35	2.72572
1397.93	3.34839
1399.51	2.91827
1401.08	2.9222
1402.66	2.80616
1404.24	3.02655
1405.82	3.3665
1407.4	3.84636
1408.97	3.28055
1410.55	4.65186
1412.13	3.8501
1413.71	4.17263
1415.28	4.27581
1416.86	4.31785
1418.43	3.8269
1420.01	3.65246
1421.59	4.87859
1423.16	4.07998
1424.73	4.05292
1426.31	5.34728
1427.88	5.18633
1429.46	6.26466
1431.03	5.78584
1432.6	6.07184
1434.18	6.59152
1435.75	6.9722
1437.32	8.06098
1438.89	8.95456
1440.46	8.12094
1442.04	7.93842
1443.61	9.09406
1445.18	9.2877
1446.75	9.93391
1448.32	10.7772
1449.89	11.877
1451.46	12.251
1453.03	11.4859
1454.6	9.28553
1456.16	10.3895
1457.73	9.56334
1459.3	9.26497
1460.87	7.68291
1462.44	7.41485
1464	7.2806
1465.57	6.80972
1467.14	6.51535
1468.7	7.14494
1470.27	5.69601
1471.83	5.82021
1473.4	4.88773
1474.96	4.13383
1476.53	4.04764
1478.09	4.19692
1479.66	4.3264
1481.22	4.55361
1482.78	4.17303
1484.35	4.63475
1485.91	3.4499
1487.47	2.75345
1489.04	3.15092
1490.6	3.85702
1492.16	3.13017
1493.72	3.27882
1495.28	2.5845
1496.84	3.13658
1498.4	2.38315
1499.96	2.02149
1501.52	1.66287
1503.08	2.4515
1504.64	2.36854
1506.2	2.67332
1507.76	2.24133
1509.32	2.02049
1510.88	1.75919
1512.44	1.47752
1513.99	1.94639
1515.55	2.43366
1517.11	2.76743
1518.66	3.33212
1520.22	4.0501
1521.78	5.97229
1523.33	7.46898
1524.89	11.27
1526.44	13.3809
1528	14.5694
1529.55	14.0798
1531.11	9.94641
1532.66	6.79288
1534.21	4.78605
1535.77	4.01585
1537.32	3.40062
1538.87	3.4487
1540.43	2.74325
1541.98	2.09583
1543.53	2.18337
1545.08	1.89429
1546.63	2.31901
1548.18	2.36729
1549.74	2.09676
1551.29	2.37015
1552.84	2.66278
1554.39	2.28404
1555.94	2.45034
1557.48	2.17208
1559.03	2.32715
1560.58	1.68378
1562.13	2.46137
1563.68	2.06584
1565.23	2.52962
1566.78	2.43378
1568.32	3.2706
1569.87	2.74414
1571.42	2.98214
1572.96	2.6782
1574.51	2.37393
1576.05	2.89107
1577.6	2.69924
1579.14	2.99363
1580.69	2.89722
1582.24	2.22341
1583.78	2.98936
1585.32	2.82284
1586.87	2.97497
1588.41	2.88426
1589.95	2.15676
1591.5	3.91744
1593.04	3.9743
1594.58	2.85053
1596.12	3.48741
1597.67	3.80693
1599.21	3.35928
1600.75	4.09448
1602.29	4.43716
1603.83	3.89745
1605.37	3.71263
1606.91	4.08853
1608.45	3.61454
1609.99	3.90627
1611.53	3.83601
1613.07	2.89787
1614.6	3.32821
1616.14	2.93198
1617.68	3.30572
1619.22	3.45665
1620.75	3.62926
1622.29	2.77475
1623.83	3.12024
1625.37	3.83994
1626.9	3.79038
1628.44	2.93362
1629.97	3.08451
1631.51	3.42001
1633.04	3.60492
1634.58	3.08095
1636.11	3.26815
1637.65	3.9419
1639.18	4.16895
1640.72	4.91763
1642.25	4.52792
1643.78	3.81963
1645.31	5.11923
1646.85	4.42549
1648.38	4.92127
1649.91	4.50746
1651.44	4.43029
1652.97	4.59694
1654.5	5.06244
1656.03	4.30564
1657.56	5.14249
1659.1	4.99534
1660.62	4.56776
1662.15	5.72844
1663.68	4.51891
1665.21	5.50794
1666.74	4.18943
1668.27	4.53493
1669.8	3.75885
1671.32	3.81562
1672.85	3.54302
1674.38	3.54764
1675.91	3.73576
1677.43	2.79941
1678.96	3.27803
1680.49	2.68767
1682.01	2.61097
1683.54	2.88257
1685.06	2.53008
1686.59	1.81195
1688.11	2.23183
1689.64	2.3772
1691.16	2.39469
1692.68	2.11947
1694.21	2.10042
1695.73	1.36806
1697.25	1.95145
1698.78	1.87611
1700.3	1.14299
1701.82	1.63166
1703.34	1.28022
1704.86	1.16495
1706.39	0.903418
1707.91	1.31438
1709.43	1.0706
1710.95	0.391855
1712.47	0.893105
1713.99	0.977098
1715.51	0.680897
1717.02	1.5064
1718.54	0.324259
1720.06	1.05794
1721.58	1.41184
1723.1	0.504307
1724.62	1.09523
1726.13	0.157368
1727.65	0.608704
1729.17	0.827549
1730.68	0.0760765
1732.2	0.735676
1733.72	0.66481
1735.23	0.531221
1736.75	0.87994
1738.26	0.676386
1739.78	0.418037
1741.29	0.730213
1742.81	0.264921
1744.32	0.172161
1745.84	0.421095
1747.35	0.57095
1748.86	0.515436
1750.37	-0.0609818
1751.89	0.207825
1753.4	0.361883
1754.91	0.364119
1756.42	0.295065
1757.93	-0.178447
1759.45	0.153757
1760.96	-0.240828
1762.47	0.107073
1763.98	0.398363
1765.49	0.606796
1767	0.374067
1768.51	0.376465
1770.02	0.225112
1771.53	0.207049
1773.03	0.447944
1774.54	0.271105
1776.05	-0.0655546
1777.56	-0.054224
1779.07	-0.0165081
1780.57	0.304662
1782.08	0.348596
1783.59	0.0909367
1785.09	0.0312557
1786.6	0.223485
1788.11	0.0699682
1789.61	-0.203029
1791.12	-0.299948
1792.62	-0.116879
1794.13	-0.128864
1795.63	0.0974894
1797.13	-0.505698
1798.64	-0.0393782
1800.14	0.172998
1801.65	0.0369501
1803.15	0.160527
1804.65	0.111357
1806.15	0.36377
1807.66	-0.329877
1809.16	-0.477425
1810.66	0.0928574
1812.16	0.0971937
1813.66	-0.00507355
1815.16	0.182911
1816.66	0.299802
1818.16	0.297178
1819.66	0.215638
1821.16	0.131211
1822.66	0.0445881
1824.16	-0.0431852
1825.66	0.0382862
1827.16	-0.0847721
1828.66	0.0104303
1830.16	-0.0453959
1831.65	0.00588417
1833.15	-0.0176191
1834.65	0.0124216
1836.14	-0.133265
1837.64	0.247247
1839.14	-0.236219
1840.63	-0.158464
1842.13	-0.556731
1843.62	0.427453
1845.12	-0.266749
1846.61	0.174335
1848.11	-0.0922775
1849.6	-0.156202
1851.1	-0.1279
1852.59	0.0980215
1854.08	0.787915
1855.58	0.0596991
1857.07	0.0371752
1858.56	-0.475078
1860.05	-0.0233164
1861.55	0.508303
1863.04	-0.14805
1864.53	-0.218805
1866.02	-0.31077
1867.51	0.152124
1869	-0.0860281
1870.49	0.388175
1871.98	0.167085
1873.47	0.459168
1874.96	-0.471626
1876.45	0.236498
1877.94	-0.0646677
1879.43	0.00516891
1880.92	0.115829
1882.41	0.471719
1882.51	0.498021
1884	-0.0431643
1885.5	0.268629
1886.99	0.247768
1888.48	0.452371
1889.98	0.256867
1891.47	0.497896
1892.96	0.0285406
1894.46	-0.246519
1895.95	0.0198584
1897.44	0.0963573
1898.93	-0.244769
1900.42	0.369232
1901.91	0.441313
1903.41	0.232178
1904.9	0.298941
1906.39	0.416434
1907.88	-0.0914249
1909.37	-0.129202
1910.86	-0.182833
1912.35	0.406816
1913.83	-0.130204
1915.32	0.321525
1916.81	0.28709
1918.3	0.113127
1919.79	-0.0441542
1921.27	0.335443
1922.76	0.282547
1924.25	-0.322915
1925.74	0.00835037
1927.22	0.237438
1928.71	0.225215
1930.19	0.126349
1931.68	0.0608149
1933.17	0.460472
1934.65	0.441598
1936.14	0.368059
1937.62	-0.243372
1939.11	0.372008
1940.59	-0.325288
1942.07	0.27389
1943.56	0.0634165
1945.04	0.182133
1946.52	0.163469
1948.01	0.00657749
1949.49	0.00364971
1950.97	-0.207483
1952.45	-0.299403
1953.93	0.0549517
1955.42	0.168098
1956.9	0.693848
1958.38	-0.187257
1959.86	-0.0198669
1961.34	-0.38332
1962.82	0.0765629
1964.3	0.193112
1965.78	-0.153631
1967.26	0.611382
1968.74	0.262589
1970.21	0.426071
1971.69	-0.0943508
1973.17	0.324614
1974.65	0.214392
1976.13	-0.065834
1977.6	-0.15806
1979.08	0.481907
1980.56	0.0323315
1982.03	0.127031
1983.51	-0.169574
1984.99	-0.160763
1986.46	0.203796
1987.94	-0.211808
1989.41	0.559092
1990.89	-0.159213
1992.36	-0.0464067
1993.84	0.38907
1995.31	-0.272922
1996.78	-0.0215073
1998.26	0.499908
1999.73	0.480026
2001.2	-0.401452
2002.68	0.0326958
2004.15	0.567323
2005.62	0.0741167
2007.09	-0.265904
2008.56	-0.115906
2010.04	-0.351833
2011.51	0.221137
2012.98	0.373269
2014.45	0.373221
2015.92	0.405568
2017.39	0.066411
2018.86	0.449062
2020.33	-0.144088
2021.8	-0.0147514
2023.26	0.198889
2024.73	0.463932
2026.2	0.596531
2027.67	0.396002
2029.14	-0.187863
2030.61	0.220017
2032.07	0.10944
2033.54	0.385687
2035.01	0.225484
2036.47	-0.137017
2037.94	0.221969
2039.4	0.0762796
2040.87	0.0144873
2042.33	0.659453
2043.8	-0.275043
2045.27	0.0195198
2046.73	0.416586
2048.19	0.342916
2049.66	0.201237
2051.12	0.546795
2052.59	0.434697
2054.05	0.100385
2055.51	0.0499907
2056.97	0.14915
2058.44	0.297503
2059.9	-0.127222
2061.36	0.2067
2062.82	0.693192
2064.28	0.5416
2065.74	0.358029
2067.21	-0.0597696
2068.67	0.499501
2070.13	-0.135738
2071.59	0.356936
2073.05	0.00763416
2074.51	0.179856
2075.96	0.402097
2077.42	0.337485
2078.88	-0.569759
2080.34	0.492518
2081.8	0.492991
2083.26	-0.281916
2084.72	0.238169
2086.17	0.554878
2087.63	0.248206
2089.09	-0.243715
2090.54	-0.164353
2092	0.401676
2093.45	0.295794
2094.91	0.105771
2096.37	0.485041
2097.82	0.946491
2099.28	0.418818
2100.73	0.05867
2102.19	1.06963
2103.64	-0.0736132
2105.09	0.689135
2106.55	0.585921
2108	0.534536
2109.45	0.683847
2110.91	1.08228
2112.36	1.01169
2113.81	0.921715
2115.26	0.862503
2116.72	0.702154
2118.17	1.17377
2119.62	0.567954
2121.07	0.347519
2122.52	0.5947
2123.97	0.844116
2125.42	1.5091
2126.87	0.913497
2128.32	1.04583
2129.77	1.05985
2131.22	1.18766
2132.67	0.701575
2134.11	1.17547
2135.56	1.20371
2137.01	1.21779
2138.46	1.59848
2139.91	1.12291
2141.35	1.79051
2142.8	1.73291
2144.25	1.97416
2145.7	1.55386
2147.14	1.67911
2148.59	2.08497
2150.03	1.66126
2151.48	1.96476
2152.92	1.90212
2154.37	1.77182
2155.81	2.35313
2157.26	1.99024
2158.7	2.83781
2160.15	2.62754
2161.59	2.05566
2163.03	3.19415
2164.47	2.32931
2165.92	2.29486
2167.36	2.2104
2168.8	3.18802
2170.24	3.13235
2171.69	3.03959
2173.13	3.39249
2174.57	3.39353
2176.01	2.26264
2177.45	3.37718
2178.89	2.74709
2180.33	2.68406
2181.77	2.82209
2183.21	2.89469
2184.65	2.9013
2186.09	2.85813
2187.53	2.9814
2188.97	2.62217
2190.4	2.57903
2191.84	2.35231
2193.28	2.50722
2194.72	2.8097
2196.16	2.34324
2197.59	1.87368
2199.03	1.61789
2200.47	2.14162
2201.9	2.33225
2203.34	1.81032
2204.77	2.21942
2206.21	1.80123
2207.64	2.22921
2209.08	2.20943
2210.51	1.74148
2211.95	1.60321
2213.38	2.27379
2214.82	1.58877
2216.25	1.36786
2217.68	1.90796
2219.12	1.21285
2220.55	1.87151
2221.98	1.37634
2223.41	1.14396
2224.85	1.27183
2226.28	0.755002
2227.71	1.28853
2229.14	1.04702
2230.57	1.00161
2232	0.398803
2233.43	1.22184
2234.86	0.376472
2236.29	0.759845
2237.72	0.426811
2239.15	0.309273
2240.58	0.78217
2242.01	0.425973
2243.44	0.495834
2244.87	1.23507
2246.29	0.570527
2247.72	0.441823
2249.15	0.554362
2250.58	1.31492
2252.01	0.280907
2253.43	0.93865
2254.86	0.832042
2256.29	0.679201
2257.71	0.173326
2259.14	0.402249
2260.56	0.554622
2261.99	0.0779057
2263.41	0.918728
2264.84	0.298501
2266.26	0.896511
2267.69	0.729276
2269.11	0.153562
2270.53	0.0483351
2271.96	0.0399637
2273.38	0.503625
2274.8	0.299733
2276.23	0.35678
2277.65	0.21856
2279.07	0.732476
2280.49	0.855217
2281.91	0.211218
2283.34	0.741443
2284.76	0.129674
2286.18	-0.171926
2287.6	0.35958
2289.02	0.385786
2290.44	0.363633
2291.86	0.570771
2293.28	-0.104828
2294.7	0.576947
2296.12	0.244338
2297.54	-0.186889
2298.96	0.511985
2300.37	0.687292
2301.79	0.272909
2303.21	0.613237
2304.63	-0.0471134
2306.04	-0.100602
2307.46	0.338275
2308.88	0.365765
2310.3	0.0963535
2311.71	0.253819
2313.13	0.378412
2314.54	0.0922213
2315.96	0.136269
2317.37	0.0662365
2318.79	-0.1845
2320.2	-0.171953
2321.62	-0.474542
2323.03	-0.615039
2324.45	0.0497103
2325.86	0.166332
2327.27	0.939863
2328.69	0.34342
2330.1	0.439728
2331.51	-0.104759
2332.92	-0.169829
2334.34	-0.00320148
2335.75	-0.576524
2337.16	0.247717
2338.57	0.297244
2339.98	-0.19731
2341.39	0.194027
2342.8	-0.203653
2344.21	-0.174463
2345.63	-0.112123
2347.04	0.622128
2348.45	0.226072
2349.85	0.418836
2351.26	0.217802
2352.67	-0.425417
2354.08	0.024353
2355.49	-0.0820322
2356.9	-0.204985
2358.3	-0.116293
2359.71	0.134868
2361.12	0.0935116
2362.53	-0.43417
2363.93	-0.523593
2365.34	-0.0952034
2366.75	0.267918
2368.15	-0.321341
2369.56	0.0599003
2370.97	-0.36341
2372.37	0.246884
2373.77	-0.0275364
2375.18	-0.365498
2376.59	0.19728
2377.99	0.162871
2379.39	0.351071
2380.8	0.552389
2382.2	-0.0346775
2383.6	0.65946
2385.01	0.295793
2386.41	0.17326
2387.81	0.0523939
2389.21	-0.49689
2390.62	0.135563
2392.02	0.418645
2393.42	0.161976
2394.82	-0.0136127
2396.22	-0.45824
2397.62	-0.0274982
2399.02	0.292655
2400.42	0.359268
2401.82	-0.129576
2403.22	-0.110001
2404.62	-0.202136
2406.02	0.275941
2407.42	0.48249
2408.82	0.243533
2410.22	-0.122522
2411.62	0.367643
2413.01	0.240988
2414.41	0.227214
2415.81	0.0257397
2417.21	-0.221179
2418.6	-0.00759506
2420	0.0799265
2421.4	0.420761
2422.79	0.507663
2424.19	0.11881
2425.59	-0.0640583
2426.98	0.0232096
2428.38	0.524026
2429.77	0.344687
2431.17	0.420154
2432.56	0.146703
2433.95	-0.111928
2435.35	0.437787
2436.74	0.38164
2438.14	-0.105877
2439.53	0.214879
2440.92	-0.164674
2442.31	-0.147954
2443.71	0.249139
2445.1	-0.512256
2446.49	0.169514
2447.88	0.375043
2449.27	-0.0374184
2450.67	0.659153
2452.06	-0.242588
2453.45	-0.224861
2454.84	-0.190057
2456.23	0.35198
2457.62	0.0877132
2459.01	0.234476
2460.4	-0.0941143
2461.79	0.619697
2463.18	-0.0116262
2464.57	0.541538
2465.95	-0.248606
2467.34	0.713961
2468.73	-0.691177
2470.12	0.301849
2471.5	0.0794535
2472.89	0.612406
2474.28	0.198911
2475.67	0.162519
2477.05	-0.188756
2478.44	0.229962
2479.82	-0.0892839
2481.21	-0.0157919
2482.6	-0.0365295
2483.98	0.223834
2485.37	-0.487291
2486.75	0.176172
2488.13	0.461926
2489.52	0.0133123
2490.9	-0.0141659
2492.29	0.176801
2493.67	-0.0813627
2495.05	0.407606
2496.44	0.417162
2497.82	-0.377392
2499.2	-0.0250444
2500.58	0.419106
2501.97	0.0731487
2503.35	0.220392
2504.73	-0.143075
2506.11	0.0171404
2507.49	0.00730324
2508.87	0.182137
2510.25	-0.149579
2511.63	0.103336
2513.01	0.0963449
2514.39	0.565473
2515.77	-0.281056
2517.15	-0.0851774
2518.53	0.141859
2519.91	0.277226
2521.29	0.259306
2522.67	0.133539
2524.05	-0.00861359
2525.42	0.290309
2526.8	0.34466
2528.18	-0.209123
2529.55	0.106216
2530.93	0.0283995
2532.31	0.0595264
2533.69	0.0926971
2535.06	-0.131335
2536.44	0.480153
2537.81	0.239832
2539.19	-0.305647
2540.56	0.408077
2541.94	-0.275592
2543.31	0.9533
2544.69	0.590099
2546.06	0.0620651
2547.44	0.50668
2548.81	0.634103
2550.18	0.185076
2551.56	-0.0220194
2552.93	0.406866
2554.3	0.333318
2555.67	0.106648
2557.04	-0.166294
2558.42	0.424987
2559.79	0.334149
2561.16	0.607903
2562.53	0.382446
2563.9	0.309445
2565.27	-0.247836
2566.64	0.771269
2568.01	0.835802
2569.38	1.08219
2570.75	0.25246
2572.12	0.468533
2573.49	0.411884
2574.86	0.764657
2576.23	0.465583
2577.6	0.545372
2578.97	0.276044
2580.33	1.11304
2581.7	0.357248
2583.07	0.146737
2584.44	0.284548
2585.8	0.710213
2587.17	-0.212996
2588.54	0.167574
2589.9	0.19968
2591.27	0.0951834
2592.64	0.535437
2594	0.26228
2595.37	0.926554
2596.73	0.377692
2598.1	0.236569
2599.46	0.276409
2600.83	0.724283
2602.19	-0.0206509
2603.55	0.247504
2604.92	0.154117
2606.28	0.136494
2607.64	0.0278978
2609.01	0.340095
2610.37	0.363873
2611.73	0.310281
2613.09	-0.075861
2614.46	0.498875
2615.82	0.411737
2617.18	0.0702505
2618.54	0.554004
2619.9	0.00556755
2621.26	0.879581
2622.62	0.139394
2623.98	0.580182
2625.34	-0.0392284
2626.7	0.340902
2628.06	0.943452
2629.42	0.472506
2630.78	0.135826
2632.14	0.349512
2633.5	0.770691
2634.86	0.671633
2636.21	0.45401
2637.57	0.5034
2638.93	0.789651
2640.29	0.617022
2641.64	0.178915
2643	0.288444
2644.36	0.530907
2645.71	0.227029
2647.07	0.306223
2648.43	0.339997
2649.78	0.799167
2651.14	0.829967
2652.49	0.228652
2653.85	0.230366
2655.2	0.159882
2656.56	-0.304293
2657.91	0.185244
2659.26	0.748688
2660.62	0.639587
2661.97	0.720325
2663.32	0.434846
2664.68	1.06797
2666.03	0.561258
2667.38	0.360573
2668.74	0.363874
2670.09	0.0911083
2671.44	0.662791
2672.79	0.987647
2674.14	0.891953
2675.49	0.173123
2676.84	0.790577
2678.19	0.683396
2679.54	0.360068
2680.89	0.922829
2682.24	0.0085907
2683.59	0.517033
2684.94	0.954663
2686.29	-0.0141535
2687.64	0.453077
2688.99	0.337988
2690.34	0.728336
2691.69	0.985002
2693.03	0.60061
2694.38	0.272977
2695.73	0.814909
2697.08	0.618444
2698.42	0.366205
2699.77	0.898544
2701.12	0.810991
2702.46	-0.0998363
2703.81	0.671192
2705.15	0.341892
2706.5	0.766572
2707.85	0.233473
2709.19	0.933185
2710.54	0.659799
2711.88	1.01041
2713.22	0.925037
2714.57	0.694118
2715.91	1.02998
2717.26	1.59848
2718.6	0.741145
2719.94	1.0032
2721.29	1.20637
2722.63	1.21954
2723.97	1.18822
2725.31	1.54914
2726.66	1.03606
2728	0.638921
2729.34	0.83807
2730.68	0.702244
2732.02	0.740938
2733.36	0.837917
2734.7	0.818754
2736.04	1.14896
2737.38	0.766673
2738.72	1.21332
2740.06	1.16504
2741.4	0.330788
2742.74	0.484293
2744.08	0.316864
2745.42	0.366444
2746.76	0.516906
2748.09	0.36209
2749.43	0.192915
2750.77	0.749316
2752.11	0.247319
2753.45	0.0938463
2754.78	0.172522
2756.12	-0.0383596
2757.46	0.243411
2758.79	0.235881
2760.13	0.417068
2761.46	0.266107
2762.8	0.593405
2764.14	-0.0338173
2765.47	0.0334692
2766.8	0.244697
2768.14	0.338673
2769.47	0.719715
2770.81	0.317657
2772.14	-0.0861292
2773.48	0.216107
2774.81	0.228584
2776.14	0.61543
2777.48	-0.134807
2778.81	-0.279019
2780.14	-0.393518
2781.47	0.0239439
2782.8	0.268752
2784.14	0.197583
2785.47	-0.289179
2786.8	0.356452
2788.13	-0.286251
2789.46	-0.25465
2790.79	0.121532
2792.12	-0.0589609
2793.45	0.175906
2794.78	-0.418206
2796.11	0.173368
2797.44	-0.364697
2798.77	-0.0608473
2800.1	0.341962
2801.43	0.415848
2802.76	0.00455189
2804.09	0.448284
2805.41	0.335341
2806.74	0.107675
2808.07	0.177958
2809.4	0.574323
2810.72	0.387847
2812.05	0.358688
2813.38	0.0477123
2814.71	0.221337
2816.03	0.496385
2817.36	0.546409
2818.68	0.271409
2820.01	0.478329
2821.33	0.741204
2822.66	0.847037
2823.98	0.540904
2825.31	0.758412
2826.63	0.890905
2827.96	0.641916
2829.28	1.01682
2830.6	1.0244
2831.93	1.74012
2833.25	1.84703
2834.57	2.51952
2835.9	2.92209
2837.22	3.46501
2838.54	3.45516
2839.86	4.77424
2841.18	6.03627
2842.5	6.43639
2843.83	7.21939
2845.15	7.94736
2846.47	8.23867
2847.79	8.62982
2849.11	8.56878
2850.43	9.38339
2851.75	8.31701
2853.07	8.63459
2854.39	8.96532
2855.71	9.22489
2857.03	8.72152
2858.35	9.57438
2859.66	9.21244
2860.98	10.0081
2862.3	10.1956
2863.62	10.8621
2864.94	10.9068
2866.25	11.1488
2867.57	11.7017
2868.89	11.9029
2870.2	12.3588
2871.52	13.0124
2872.84	12.9605
2874.15	14.1748
2875.47	13.3996
2876.78	14.8327
2878.1	15.9385
2879.41	16.7329
2880.73	17.3024
2882.04	16.8763
2883.36	15.5546
2884.67	15.2053
2885.99	14.928
2887.3	14.5106
2888.61	14.9483
2889.93	14.6543
2891.24	14.8211
2892.55	14.7899
2893.86	14.282
2895.18	14.6297
2896.49	15.4271
2897.8	14.7016
2899.11	14.8884
2900.42	15.1613
2901.73	14.9038
2903.05	15.8499
2904.36	16.069
2905.67	16.0231
2906.98	15.5871
2908.29	16.2582
2909.6	17.2675
2910.91	17.2152
2912.21	17.4849
2913.52	18.5228
2914.83	18.4791
2916.14	18.7108
2917.45	19.0922
2918.76	18.9251
2920.07	18.3381
2921.37	19.5709
2922.68	19.2548
2923.99	20.0049
2925.29	20.0871
2926.6	20.4926
2927.91	20.1994
2929.22	20.2687
2930.52	21.0775
2931.83	21.927
2933.13	21.4617
2934.44	20.3675
2935.74	20.6715
2937.05	21.0458
2938.35	19.9674
2939.66	19.7143
2940.96	19.3787
2942.26	18.0254
2943.57	18.1703
2944.87	17.522
2946.18	17.4218
2947.48	16.2178
2948.78	16.384
2950.08	15.9457
2951.39	15.713
2952.69	14.3415
2953.99	14.7031
2955.29	14.5738
2956.59	13.425
2957.9	13.4986
2959.2	13.3547
2960.5	12.4606
2961.8	12.2711
2963.1	12.5463
2964.4	12.4136
2965.7	11.6595
2967	11.4352
2968.3	11.6437
2969.6	10.3741
2970.9	9.75084
2972.19	10.6052
2973.49	10.2929
2974.79	9.12185
2976.09	9.68087
2977.39	8.8857
2978.68	8.55172
2979.98	8.35511
2981.28	8.14191
2982.58	7.63245
2983.87	6.60403
2985.17	7.2933
2986.47	6.95966
2987.76	5.91259
2989.06	6.09018
2990.35	5.59394
2991.65	5.3358
2992.94	4.54182
2994.24	4.40626
2995.53	4.1424
2996.83	3.97581
2998.12	3.66881
2999.42	3.57311
3000.71	3.54874
3002	2.88089
3003.3	2.66282
3004.59	2.26317
3005.88	2.32564
3007.18	2.03726
3008.47	1.7619
3009.76	1.35969
3011.05	1.52985
3012.34	1.08492
3013.64	1.24077
3014.93	1.06274
3016.22	0.830642
3017.51	1.11543
3018.8	0.747031
3020.09	0.254246
3021.38	0.720616
3022.67	0.615787
3023.96	0.440396
3025.25	0.236609
3026.54	-0.00844097
3027.83	0.232289
3029.12	-0.175176
3030.41	0.125224
3031.69	0.469346
3032.98	-0.0959291
3034.27	0.388832
3035.56	0.445049
3036.84	-0.0520935
3038.13	0.123999
3039.42	0.104432
3040.71	-0.302123
3041.99	-0.118508
3043.28	-0.195605
3044.57	0.646257
3045.85	0.0671406
3047.14	-0.247515
3048.42	-0.257371
3049.71	0.787278
3050.99	0.442487
3052.28	1.01371
3053.56	0.725636
3054.85	0.177711
3056.13	0.965313
3057.41	0.374015
3058.7	0.708842
3059.98	0.90705
3061.26	0.357526
3062.55	0.50414
3063.83	0.340483
3065.11	1.14497
3066.39	0.660506
3067.68	0.137181
3068.96	0.87942
3070.24	0.656224
3071.52	0.200782
3072.8	0.0703096
3074.08	0.101519
3075.36	0.294738
3076.65	0.0395555
3077.93	-0.0786362
3079.21	-0.276084
3080.49	-0.33511
3081.77	0.0698071
3083.04	0.355017
3084.32	0.00408936
3085.6	0.128638
3086.88	-0.0999651
3088.16	0.132293
3089.44	0.0925074
3090.72	0.106769
3091.99	0.406179
3093.27	0.245004
3094.55	0.247563
3095.83	0.345945
3097.1	0.0789042
3098.38	-0.106293
3099.66	0.413506
3100.93	0.188361
3102.21	0.19419
3103.49	0.674786
3104.76	0.642098
3106.04	0.516341
3107.31	0.839084
3108.59	0.649682
3109.86	-0.0249338
3111.14	0.0603008
3112.41	0.878666
3113.69	0.872259
3114.96	0.866271
3116.23	0.914436
3117.51	1.04325
3118.78	0.913308
3120.05	0.999271
3121.33	0.948814
3122.6	1.4673
3123.87	1.33537
3125.14	1.00143
3126.41	1.2375
3127.69	1.40722
3128.96	1.82171
3130.23	1.27709
3131.5	1.72041
3132.77	1.38017
3134.04	2.0263
3135.31	1.79414
3136.58	2.10178
3137.85	1.73483
3139.12	2.12298
3140.39	1.68983
3141.66	2.36107
3142.93	1.74246
3144.2	1.97207
3145.47	2.31039
3146.74	2.69023
3148	2.38801
3149.27	2.04775
