200.563	0.41383
202.377	0.442867
204.194	0.4734
206.008	1.30833
207.821	0.903362
209.634	0.449366
211.449	0.382643
213.262	0.192472
215.074	0.582933
216.885	0.293406
218.699	0.319513
220.51	1.09712
222.321	0.642076
224.131	0.286001
225.941	0.221384
227.751	-0.881655
229.562	0.406164
231.371	-0.0215874
233.18	-0.0150833
234.988	0.35393
236.796	0.845665
238.603	0.642254
240.411	0.756891
242.219	0.393578
244.026	-0.136538
245.832	0.636044
247.638	-0.0904884
249.443	0.264591
251.248	1.60406
253.053	0.910534
254.857	0.576433
256.661	1.13418
258.465	0.536377
260.268	-0.467421
262.071	0.483786
263.874	-0.176092
265.678	-0.0149689
267.48	-0.45574
269.282	-0.174051
271.083	0.660872
272.884	0.794689
274.684	-0.158951
276.484	-0.343813
278.284	-0.218481
280.084	0.384964
281.883	0.165764
283.682	0.881489
285.48	-0.184393
287.276	0.0945187
289.074	0.157209
290.871	0.101433
292.668	0.431095
294.465	-0.289299
296.261	0.523783
298.057	-0.0480118
299.853	0.862724
301.648	-0.448687
303.443	-0.184921
305.237	-0.186045
307.032	0.598328
308.823	-0.477798
310.617	-0.312853
312.41	0.35421
314.203	-0.0476189
315.995	0.00631905
317.788	-0.651058
319.579	-0.25794
321.369	0.494961
323.16	0.46307
324.951	1.76823
326.741	0.353125
328.531	-0.419113
330.321	0.480005
332.108	-0.272522
333.897	0.406963
335.686	-0.257168
337.474	0.271097
339.26	0.412689
341.048	0.28841
342.835	-0.339146
344.622	0.777966
346.406	0.366526
348.192	0.410275
349.978	0.0967865
351.764	0.141426
353.547	0.614468
355.332	0.226564
357.116	0.194227
358.901	-0.150248
360.682	0.718124
362.466	-0.105877
364.249	-0.145342
366.03	0.360331
367.812	0.412724
369.594	0.250029
371.374	-0.766546
373.155	-0.268026
374.936	0.606779
376.715	0.0634899
378.495	0.300404
380.273	0.35
382.053	-0.116211
383.832	0.196651
385.609	1.35763
387.388	0.616497
389.164	0.136248
390.942	-0.647396
392.72	0.0734844
394.495	0.30213
396.272	0.437464
398.047	0.36153
399.823	0.590574
401.597	-0.308674
403.372	0.552517
405.145	0.684139
406.92	1.07267
408.693	0.520796
410.467	-0.00797081
412.239	0.167538
414.012	-0.242891
415.783	0.614964
417.556	-0.144806
419.327	0.0819588
421.099	-0.254141
422.869	0.0664024
424.64	0.0805378
426.409	-0.165255
428.18	-0.0134373
429.948	0.888594
431.718	1.03936
433.486	0.251894
435.253	0.591551
437.022	0.0157814
438.789	-0.397024
440.558	-0.671541
442.324	-0.0111599
444.089	1.01982
445.857	0.687389
447.622	-0.184961
449.386	-0.0979061
451.153	0.946966
452.917	-0.0168362
454.682	0.234093
456.446	0.507832
458.208	0.198658
459.973	0.657955
461.735	1.0946
463.497	0.534264
465.259	0.187778
467.022	1.56587
468.783	0.136938
470.544	0.593714
472.306	0.144411
474.066	0.5779
475.825	0.845488
477.585	0.270613
479.346	0.717361
481.104	0.580002
482.862	0.210068
484.62	0.58754
486.38	1.01519
488.137	-0.0214558
489.894	0.343664
491.65	0.664461
493.407	0.659803
495.164	0.32803
496.92	0.299726
498.675	1.04404
500.43	-0.0639343
502.184	0.843576
503.939	1.23407
505.694	1.10584
507.448	1.49219
509.201	1.31133
510.954	1.59793
512.706	1.48154
514.459	0.515234
516.21	0.887613
517.962	1.09293
519.715	0.708551
521.466	0.628565
523.216	0.524286
524.966	0.349295
526.716	0.854691
528.466	0.562403
530.215	1.1372
531.964	0.84399
533.712	0.666613
535.46	1.32927
537.208	0.586092
538.955	0.84556
540.703	0.869104
542.449	1.00757
544.196	0.749516
545.942	0.468777
547.688	0.699539
549.433	1.34741
551.178	0.628092
552.923	-0.205006
554.667	0.650618
556.412	0.97406
558.155	0.0754337
559.899	0.653765
561.642	0.679628
563.385	-0.213545
565.127	0.43553
566.867	0.809254
568.609	0.518221
570.35	0.66539
572.092	-0.033844
573.832	-0.156462
575.573	0.182819
577.313	0.525162
579.053	0.204332
580.79	0.619495
582.529	1.44883
584.268	0.0248089
586.006	0.644657
587.745	-0.324745
589.482	0.428923
591.218	-0.199436
592.955	0.413677
594.692	0.566355
596.428	0.327972
598.164	0.250546
599.898	-0.425722
601.634	-0.344282
603.369	0.217827
605.104	-0.165596
606.836	-0.183319
608.57	0.142
610.304	0.306072
612.037	0.470837
613.769	0.361767
615.501	0.276869
617.234	0.100636
618.966	0.450268
620.696	-0.507111
622.427	-0.573458
624.159	0.638903
625.887	-0.000616074
627.618	0.298603
629.348	-0.106321
631.076	-0.187429
632.806	-0.265022
634.535	0.594902
636.262	0.449993
637.99	-0.086237
639.716	0.399811
641.444	-0.0550537
643.172	0.0105724
644.897	0.00568581
646.624	0.137905
648.348	-0.135744
650.075	-0.221775
651.801	0.585135
653.524	0.262917
655.249	0.446716
656.972	-0.321518
658.697	-0.952999
660.419	-0.285925
662.143	-0.0543365
663.865	0.653427
665.588	0.694473
667.309	-0.136887
669.032	-0.398003
670.752	0.8521
672.474	-0.571117
674.194	0.412939
675.915	-0.22517
677.634	0.583172
679.355	0.0611343
681.073	-0.417736
682.793	-0.141254
684.511	0.477175
686.23	0.0102615
687.947	-0.183245
689.664	0.680925
691.382	0.806736
693.098	0.125195
694.816	0.547907
696.531	0.416048
698.247	0.903641
699.963	0.606209
701.678	0.284006
703.392	-0.108438
705.108	0.279228
706.821	0.275297
708.534	0.61458
710.249	0.0590267
711.962	0.442362
713.674	-0.0217838
715.388	0.0400887
717.099	-0.697258
718.81	0.163561
720.523	-0.367065
722.234	0.606377
723.944	0.0766449
725.654	-0.406944
727.365	0.336195
729.075	0.0788784
730.784	0.478659
732.492	0.0164337
734.202	0.188217
735.91	0.495415
737.618	-0.168226
739.325	0.411278
741.034	0.946417
742.741	0.176537
744.447	0.220425
746.153	0.0641994
747.859	0.382919
749.564	0.321457
751.271	0.127306
752.976	0.317814
754.681	0.668282
756.385	1.0666
758.088	0.567369
759.792	0.610884
761.495	1.10735
763.2	0.544943
764.902	0.38764
766.604	0.860806
768.306	1.19561
770.008	1.48157
771.709	0.814203
773.41	1.22982
775.11	1.28289
776.811	0.72654
778.51	1.46134
780.21	1.47536
781.909	0.676895
783.608	1.28126
785.307	0.706772
787.005	0.60342
788.703	0.879408
790.401	1.30781
792.098	1.23369
793.795	0.615101
795.492	1.17024
797.188	1.11756
798.884	1.85612
800.58	1.06654
802.276	2.01252
803.971	1.40719
805.665	0.712101
807.36	1.81369
809.054	1.58709
810.748	1.35869
812.441	1.82411
814.135	0.988348
815.826	1.2281
817.518	1.48972
819.21	1.50523
820.902	1.43172
822.594	1.53755
824.285	1.7116
825.976	1.77666
827.665	2.6252
829.355	1.98643
831.045	1.59828
832.735	1.46014
834.424	2.26188
836.111	2.04028
837.8	2.26437
839.488	1.37003
841.177	1.79004
842.864	1.13551
844.55	1.75371
846.237	2.39589
847.924	1.94623
849.61	2.03768
851.295	1.7308
852.98	1.29236
854.666	1.28099
856.349	2.72935
858.034	1.92998
859.719	1.32863
861.403	2.09675
863.085	2.47976
864.769	2.04936
866.452	2.49621
868.133	2.01759
869.816	1.96647
871.498	2.3208
873.179	1.52431
874.86	2.149
876.54	1.5553
878.221	1.48061
879.902	1.78946
881.58	1.84938
883.26	1.50158
884.938	1.51297
886.618	2.5148
888.297	2.45268
889.974	1.86894
891.653	2.18449
893.329	1.37118
895.007	1.457
896.683	0.978769
898.36	1.15085
900.035	1.54521
901.712	1.17545
903.387	0.716166
905.063	0.458817
906.737	1.25161
908.412	1.19654
910.085	0.987425
911.76	0.691397
913.433	0.463905
915.107	1.25876
916.779	0.965357
918.452	1.15992
920.124	1.50938
921.797	1.04084
923.467	0.995234
925.138	1.26197
926.81	1.53184
928.48	1.45155
930.151	1.10878
931.82	1.34105
933.489	1.72817
935.16	1.74058
936.828	0.254145
938.496	1.41602
940.165	1.27897
941.833	0.791199
943.5	0.547249
945.168	0.8988
946.834	0.188784
948.5	1.6828
950.168	0.657036
951.834	0.423943
953.499	1.02934
955.163	0.909794
956.83	0.39851
958.494	0.863504
960.158	-0.0786667
961.821	0.151285
963.487	0.469681
965.15	0.542044
966.812	0.299866
968.474	0.738537
970.138	-0.131811
971.8	0.0142002
973.461	0.00631523
975.123	-0.021019
976.783	0.684759
978.446	0.287436
980.106	-0.086834
981.766	-0.462063
983.425	1.10834
985.084	1.25846
986.743	0.807108
988.402	1.14922
990.06	0.162041
991.72	0.213493
993.378	0.662216
995.035	0.183561
996.692	0.830801
998.349	0.617392
1000.01	0.602142
1001.66	2.01756
1003.32	1.33974
1004.97	0.376432
1006.63	0.161455
1008.28	0.364273
1009.94	0.67716
1011.59	1.03434
1013.25	0.822161
1014.9	0.589096
1016.55	0.48844
1018.21	0.607676
1019.86	0.815832
1021.51	0.960234
1023.16	0.86623
1024.81	0.33699
1026.47	1.31673
1028.12	1.55338
1029.77	1.72319
1031.42	1.148
1033.07	1.55254
1034.72	1.64807
1036.37	1.08685
1038.02	2.20235
1039.67	2.38006
1041.31	1.58021
1042.96	1.65349
1044.61	1.94743
1046.26	1.83233
1047.91	2.39426
1049.55	1.65637
1051.2	2.31095
1052.84	1.31624
1054.49	2.2558
1056.14	1.84822
1057.78	2.00513
1059.43	2.76992
1061.07	3.75103
1062.72	3.25196
1064.36	2.57704
1066	1.90018
1067.65	2.50376
1069.29	2.14912
1070.93	2.42328
1072.58	1.63342
1074.22	2.71124
1075.86	2.46735
1077.5	2.22632
1079.14	1.77101
1080.78	2.24963
1082.42	1.81744
1084.06	2.38087
1085.7	1.38013
1087.34	2.10948
1088.98	2.18435
1090.62	1.88791
1092.26	2.15167
1093.9	1.59345
1095.54	1.53296
1097.17	1.53892
1098.81	1.28914
1100.45	0.612593
1102.09	0.607372
1103.72	1.76715
1105.36	1.38036
1106.99	0.908688
1108.63	1.06014
1110.27	0.220427
1111.9	1.31261
1113.53	1.67039
1115.17	1.27405
1116.8	2.1857
1118.43	1.42437
1120.07	1.30812
1121.7	2.02905
1123.33	1.68131
1124.97	1.7637
1126.6	2.575
1128.23	2.74599
1129.86	2.42666
1131.49	2.06582
1133.12	2.21869
1134.75	0.960455
1136.38	0.321098
1138.01	0.705673
1139.64	0.575165
1141.27	-0.411018
1142.9	0.373987
1144.53	0.838623
1146.16	0.408854
1147.78	0.194347
1149.41	0.237236
1151.04	0.110588
1152.67	0.708014
1154.29	0.836128
1155.92	0.580364
1157.54	-0.675348
1159.17	0.00591087
1160.8	0.688444
1162.42	-0.370598
1164.05	0.485857
1165.67	-0.549109
1167.29	0.052578
1168.92	0.2908
1170.54	0.39827
1172.16	-0.390154
1173.79	0.135447
1175.41	-0.020731
1177.03	0.161648
1178.65	-0.291235
1180.28	-0.0648193
1181.9	-0.0485783
1183.52	-0.263699
1185.14	0.598986
1186.76	0.952032
1188.38	0.204372
1190	0.318604
1191.62	-0.265591
1193.24	-0.199211
1194.86	-0.596241
1196.47	0.349684
1198.09	0.478361
1199.71	0.296377
1201.33	0.0564919
1202.95	-0.929768
1204.56	0.197388
1206.18	-0.0702801
1207.8	0.206879
1209.41	-0.0996723
1211.03	0.364014
1212.64	0.511566
1214.26	-0.0535488
1215.87	0.710617
1217.49	-0.0898476
1219.1	0.314735
1220.71	0.490036
1222.33	0.915174
1223.94	0.948275
1225.55	0.487289
1227.16	0.629778
1228.78	1.18836
1230.39	0.591057
1232	0.49242
1233.61	-0.0173149
1235.22	0.942652
1236.83	1.47088
1238.44	1.15357
1240.05	1.8506
1241.66	0.314436
1243.27	1.52851
1244.88	1.41728
1246.49	1.46967
1248.1	1.83056
1249.71	1.3417
1251.32	1.94887
1252.92	1.52214
1254.53	1.24168
1256.14	1.52175
1257.74	1.43184
1259.35	2.66843
1260.96	2.47915
1262.56	1.60729
1264.17	2.74424
1265.77	2.34766
1267.38	1.51411
1268.98	2.58578
1270.59	1.93478
1272.19	2.29769
1273.79	2.3476
1275.4	2.31267
1277	2.19308
1278.6	2.61058
1280.21	2.67459
1281.81	3.35887
1283.41	2.94641
1285.01	3.27988
1286.61	3.01545
1288.21	3.39394
1289.81	4.47677
1291.41	4.60988
1293.01	5.13525
1294.61	6.96024
1296.21	7.00529
1297.81	6.05568
1299.41	5.96977
1301.01	4.93234
1302.6	5.33573
1304.2	5.5717
1305.8	5.55898
1307.4	4.88802
1308.99	4.5461
1310.59	4.30744
1312.19	3.96777
1313.78	3.32363
1315.38	3.03004
1316.97	2.98382
1318.57	3.63235
1320.16	3.28072
1321.76	3.25366
1323.35	3.20324
1324.94	3.16979
1326.54	3.25554
1328.13	3.2995
1329.72	2.95992
1331.32	3.17039
1332.91	2.77874
1334.5	3.70442
1336.09	2.6143
1337.68	2.69606
1339.27	3.23992
1340.87	2.45042
1342.45	2.16121
1344.04	2.93417
1345.64	2.15756
1347.22	3.34822
1348.81	2.69699
1350.4	2.07176
1351.99	2.1122
1353.58	1.1168
1355.17	2.7826
1356.75	1.95042
1358.34	2.25649
1359.93	2.26102
1361.51	2.54294
1363.1	3.18203
1364.69	2.36451
1366.27	2.30555
1367.86	1.71058
1369.44	3.12887
1371.03	2.06147
1372.61	2.09146
1374.2	1.68579
1375.78	1.93793
1377.37	2.52849
1378.95	2.52109
1380.53	2.33265
1382.11	1.82349
1383.7	2.0281
1385.28	2.50898
1386.86	2.25354
1388.44	2.4554
1390.02	2.40034
1391.6	1.97002
1393.19	2.57295
1394.77	2.06562
1396.35	1.49864
1397.93	1.70372
1399.51	2.54085
1401.08	3.25659
1402.66	2.58492
1404.24	2.66572
1405.82	2.45089
1407.4	2.87035
1408.97	3.21211
1410.55	2.54726
1412.13	3.67955
1413.71	3.34917
1415.28	3.29347
1416.86	3.70945
1418.43	4.28192
1420.01	4.0272
1421.59	4.7004
1423.16	4.74655
1424.73	4.71737
1426.31	4.49398
1427.88	5.41322
1429.46	6.29245
1431.03	7.38605
1432.6	7.53213
1434.18	9.11201
1435.75	10.3753
1437.32	10.2228
1438.89	10.4851
1440.46	10.8089
1442.04	11.3316
1443.61	9.98911
1445.18	10.4164
1446.75	10.1758
1448.32	9.36551
1449.89	9.67641
1451.46	9.39869
1453.03	8.84682
1454.6	9.94798
1456.16	8.90477
1457.73	9.74869
1459.3	8.36566
1460.87	7.29339
1462.44	6.96484
1464	6.73116
1465.57	7.1832
1467.14	6.41613
1468.7	6.31826
1470.27	5.69264
1471.83	4.75605
1473.4	4.41056
1474.96	4.57662
1476.53	3.66507
1478.09	3.47928
1479.66	2.82295
1481.22	2.48019
1482.78	3.54828
1484.35	2.85235
1485.91	2.72403
1487.47	1.71291
1489.04	2.50106
1490.6	1.79792
1492.16	1.44362
1493.72	1.71101
1495.28	2.07212
1496.84	1.768
1498.4	1.67831
1499.96	0.832014
1501.52	1.23192
1503.08	1.3422
1504.64	0.562595
1506.2	1.04297
1507.76	0.535078
1509.32	0.39341
1510.88	1.54279
1512.44	0.413963
1513.99	0.365131
1515.55	0.43207
1517.11	0.941425
1518.66	1.20165
1520.22	-0.203987
1521.78	0.479195
1523.33	1.00739
1524.89	0.0248508
1526.44	-0.0418396
1528	0.347046
1529.55	0.676912
1531.11	0.759039
1532.66	0.728088
1534.21	0.206482
1535.77	0.917236
1537.32	0.400017
1538.87	0.658838
1540.43	0.993185
1541.98	0.347496
1543.53	0.813169
1545.08	1.39036
1546.63	0.594988
1548.18	1.02046
1549.74	0.938946
1551.29	0.558369
1552.84	0.852825
1554.39	1.22314
1555.94	1.2405
1557.48	0.850306
1559.03	1.22882
1560.58	1.5358
1562.13	1.45375
1563.68	1.87731
1565.23	1.85415
1566.78	1.84973
1568.32	1.43424
1569.87	0.849962
1571.42	1.72095
1572.96	1.34078
1574.51	1.57636
1576.05	1.71864
1577.6	2.12265
1579.14	1.87399
1580.69	2.54133
1582.24	1.60417
1583.78	2.18119
1585.32	1.84413
1586.87	1.22717
1588.41	1.26453
1589.95	1.99387
1591.5	1.69339
1593.04	2.25322
1594.58	2.3446
1596.12	3.5041
1597.67	2.82836
1599.21	2.84707
1600.75	3.09217
1602.29	3.24447
1603.83	3.69726
1605.37	2.75883
1606.91	2.66281
1608.45	2.78866
1609.99	2.21489
1611.53	2.23845
1613.07	2.87819
1614.6	2.48269
1616.14	2.14324
1617.68	2.2362
1619.22	2.2937
1620.75	2.18526
1622.29	2.60353
1623.83	1.63769
1625.37	2.58137
1626.9	2.08222
1628.44	2.2171
1629.97	1.938
1631.51	2.01246
1633.04	1.58189
1634.58	2.08569
1636.11	2.7583
1637.65	2.05189
1639.18	2.07413
1640.72	2.15224
1642.25	2.08009
1643.78	1.93156
1645.31	1.70667
1646.85	2.11272
1648.38	3.03793
1649.91	2.60715
1651.44	2.12302
1652.97	2.64313
1654.5	2.18212
1656.03	2.57505
1657.56	2.31902
1659.1	2.63588
1660.62	2.54282
1662.15	2.31779
1663.68	2.20199
1665.21	2.52866
1666.74	2.33877
1668.27	1.87448
1669.8	2.37177
1671.32	2.48428
1672.85	2.65388
1674.38	2.08754
1675.91	2.0917
1677.43	1.96557
1678.96	2.33427
1680.49	1.13801
1682.01	2.10995
1683.54	1.99676
1685.06	1.11317
1686.59	1.36824
1688.11	0.890641
1689.64	1.73309
1691.16	1.43991
1692.68	0.707927
1694.21	2.06166
1695.73	1.51243
1697.25	0.871954
1698.78	1.0168
1700.3	1.68992
1701.82	1.13935
1703.34	0.971231
1704.86	1.07554
1706.39	1.61553
1707.91	0.754383
1709.43	0.839014
1710.95	1.61319
1712.47	1.28034
1713.99	1.31062
1715.51	1.17801
1717.02	0.629478
1718.54	1.12975
1720.06	1.24986
1721.58	1.04531
1723.1	1.90571
1724.62	0.929058
1726.13	1.18025
1727.65	0.947514
1729.17	1.00446
1730.68	1.23975
1732.2	1.25576
1733.72	1.39652
1735.23	1.29447
1736.75	0.51665
1738.26	1.17292
1739.78	1.45444
1741.29	1.95952
1742.81	1.00982
1744.32	1.52217
1745.84	1.49516
1747.35	1.46062
1748.86	1.11979
1750.37	0.331219
1751.89	0.568258
1753.4	1.05532
1754.91	1.0046
1756.42	0.566688
1757.93	0.687844
1759.45	0.364923
1760.96	0.724433
1762.47	0.0933485
1763.98	0.497085
1765.49	0.785198
1767	0.605979
1768.51	0.447237
1770.02	0.250563
1771.53	0.372428
1773.03	0.227491
1774.54	0.498624
1776.05	0.638627
1777.56	0.45741
1779.07	0.808594
1780.57	-0.242577
1782.08	0.0553837
1783.59	0.126026
1785.09	-0.0639801
1786.6	-0.0232449
1788.11	0.260046
1789.61	-0.0484514
1791.12	0.221308
1792.62	-0.291033
1794.13	-0.0673981
1795.63	0.158495
1797.13	0.296922
1798.64	-0.172743
1800.14	0.261821
1801.65	0.114616
1803.15	-0.149968
1804.65	0.011775
1806.15	0.0100117
1807.66	0.245601
1809.16	0.0838003
1810.66	0.145179
1812.16	0.122969
1813.66	0.246308
1815.16	0.130302
1816.66	-0.00994778
1818.16	0.0540123
1819.66	0.140575
1821.16	-0.531833
1822.66	0.0940857
1824.16	0.179854
1825.66	0.383707
1827.16	-0.106918
1828.66	0.397486
1830.16	0.17761
1831.65	0.041172
1833.15	0.294614
1834.65	0.249749
1836.14	0.210466
1837.64	0.225412
1839.14	0.0635786
1840.63	-0.152389
1842.13	0.121802
1843.62	-0.0925026
1845.12	-0.195405
1846.61	0.0210018
1848.11	-0.320078
1849.6	0.268765
1851.1	-0.338815
1852.59	0.126408
1854.08	0.00602055
1855.58	0.256956
1857.07	0.339276
1858.56	-0.126151
1860.05	-0.160621
1861.55	0.427864
1863.04	0.199876
1864.53	0.168372
1866.02	0.198939
1867.51	-0.205426
1869	-0.247287
1870.49	0.181422
1871.98	0.144085
1873.47	0.417586
1874.96	0.0311184
1876.45	-0.38334
1877.94	0.00337887
1879.43	0.457308
1880.92	-0.711787
1882.41	-0.373913
1882.51	-0.344235
1884	-0.344004
1885.5	0.125579
1886.99	0.0883198
1888.48	-0.245614
1889.98	0.464962
1891.47	-0.301899
1892.96	0.29021
1894.46	0.398079
1895.95	0.438748
1897.44	0.185053
1898.93	0.278993
1900.42	0.562799
1901.91	0.5136
1903.41	0.148652
1904.9	-0.618037
1906.39	-0.134197
1907.88	0.0364981
1909.37	0.242613
1910.86	0.554057
1912.35	0.224853
1913.83	0.226166
1915.32	-0.0671768
1916.81	-0.118183
1918.3	0.176675
1919.79	0.43602
1921.27	0.279329
1922.76	0.0540619
1924.25	0.539994
1925.74	0.473559
1927.22	-0.110624
1928.71	0.102497
1930.19	0.159769
1931.68	0.510255
1933.17	0.945072
1934.65	0.165233
1936.14	-0.408875
1937.62	-0.0331001
1939.11	0.237806
1940.59	-0.354599
1942.07	0.0903683
1943.56	0.294939
1945.04	0.759308
1946.52	0.362012
1948.01	0.705651
1949.49	-0.0718288
1950.97	0.148562
1952.45	0.418938
1953.93	0.275378
1955.42	0.320888
1956.9	0.212353
1958.38	-0.049509
1959.86	0.27322
1961.34	0.579319
1962.82	-0.177219
1964.3	-0.368018
1965.78	0.382488
1967.26	0.343875
1968.74	0.441138
1970.21	-0.163433
1971.69	0.0693865
1973.17	-0.0908003
1974.65	0.295165
1976.13	0.493362
1977.6	0.470109
1979.08	-0.148714
1980.56	0.168785
1982.03	0.468597
1983.51	-0.149727
1984.99	0.386545
1986.46	-0.146877
1987.94	0.862662
1989.41	0.143836
1990.89	0.222384
1992.36	0.319135
1993.84	-0.292751
1995.31	0.0771942
1996.78	0.700934
1998.26	0.446025
1999.73	0.713985
2001.2	-0.11607
2002.68	-0.372628
2004.15	0.213756
2005.62	-0.0256033
2007.09	0.191082
2008.56	0.39217
2010.04	0.224079
2011.51	0.763823
2012.98	0.647093
2014.45	0.46244
2015.92	0.613183
2017.39	0.0224419
2018.86	-0.199204
2020.33	0.217038
2021.8	0.0448542
2023.26	0.511148
2024.73	0.776861
2026.2	0.339701
2027.67	0.15642
2029.14	-0.0582066
2030.61	-0.153518
2032.07	0.306292
2033.54	0.616052
2035.01	0.707694
2036.47	0.00927639
2037.94	0.0658131
2039.4	0.189013
2040.87	-0.175323
2042.33	0.166904
2043.8	-0.212838
2045.27	0.636786
2046.73	0.0573225
2048.19	0.252562
2049.66	0.0598936
2051.12	0.202809
2052.59	0.410995
2054.05	0.21177
2055.51	0.718212
2056.97	0.00858021
2058.44	0.309307
2059.9	0.323195
2061.36	0.556544
2062.82	0.252311
2064.28	0.521911
2065.74	0.759293
2067.21	0.0386934
2068.67	-0.327698
2070.13	0.147927
2071.59	0.0850372
2073.05	0.156616
2074.51	0.514089
2075.96	0.77007
2077.42	0.301378
2078.88	0.236256
2080.34	0.237821
2081.8	0.74366
2083.26	0.726493
2084.72	0.506276
2086.17	0.789746
2087.63	0.567614
2089.09	0.597138
2090.54	-0.0287695
2092	0.101335
2093.45	0.466087
2094.91	0.729439
2096.37	0.187259
2097.82	-0.070466
2099.28	0.441133
2100.73	0.48323
2102.19	0.826345
2103.64	0.786139
2105.09	0.330669
2106.55	0.728493
2108	0.777395
2109.45	0.976872
2110.91	0.0418844
2112.36	0.672004
2113.81	0.766046
2115.26	0.757704
2116.72	0.49864
2118.17	0.589287
2119.62	0.333167
2121.07	0.445106
2122.52	0.51002
2123.97	0.759452
2125.42	0.147587
2126.87	0.14892
2128.32	0.762167
2129.77	0.776501
2131.22	0.275468
2132.67	0.551788
2134.11	0.496864
2135.56	0.707673
2137.01	0.325399
2138.46	0.640036
2139.91	0.6599
2141.35	0.268883
2142.8	0.83843
2144.25	1.42592
2145.7	0.855597
2147.14	1.01288
2148.59	1.28528
2150.03	0.97671
2151.48	1.36244
2152.92	1.19995
2154.37	1.23506
2155.81	1.3523
2157.26	1.2377
2158.7	1.3395
2160.15	1.49297
2161.59	1.64913
2163.03	1.41031
2164.47	0.858318
2165.92	1.45234
2167.36	1.66499
2168.8	2.07583
2170.24	1.73592
2171.69	1.19295
2173.13	1.47875
2174.57	1.91214
2176.01	1.26351
2177.45	1.21397
2178.89	2.06333
2180.33	1.16844
2181.77	1.0396
2183.21	1.47701
2184.65	1.4659
2186.09	1.6878
2187.53	1.71016
2188.97	1.48294
2190.4	1.27225
2191.84	1.34413
2193.28	0.81553
2194.72	1.98322
2196.16	1.58312
2197.59	1.37992
2199.03	1.30736
2200.47	1.4327
2201.9	1.47459
2203.34	1.46762
2204.77	1.32966
2206.21	1.32599
2207.64	0.561061
2209.08	0.939139
2210.51	0.703345
2211.95	1.16108
2213.38	0.542685
2214.82	1.06465
2216.25	1.19063
2217.68	1.03768
2219.12	0.606368
2220.55	0.720648
2221.98	0.340633
2223.41	0.734209
2224.85	0.763166
2226.28	0.756673
2227.71	1.02724
2229.14	0.539859
2230.57	0.757803
2232	0.303075
2233.43	0.750022
2234.86	0.49397
2236.29	0.109413
2237.72	0.560266
2239.15	-0.0472784
2240.58	1.11012
2242.01	0.638783
2243.44	0.560758
2244.87	0.711633
2246.29	0.258054
2247.72	0.487283
2249.15	0.859979
2250.58	1.00089
2252.01	0.894767
2253.43	0.494833
2254.86	0.567215
2256.29	0.186971
2257.71	0.638089
2259.14	-0.107465
2260.56	0.562704
2261.99	0.00316811
2263.41	0.289873
2264.84	0.431137
2266.26	0.24684
2267.69	0.0937529
2269.11	0.557649
2270.53	0.304415
2271.96	0.196846
2273.38	0.658992
2274.8	0.697913
2276.23	-0.354526
2277.65	0.141056
2279.07	0.73481
2280.49	0.252545
2281.91	0.0471354
2283.34	0.135173
2284.76	0.565981
2286.18	0.164858
2287.6	0.38448
2289.02	-0.113803
2290.44	-0.415814
2291.86	-0.0965033
2293.28	0.0270147
2294.7	0.314217
2296.12	0.225066
2297.54	-0.0934982
2298.96	-0.0518589
2300.37	0.334259
2301.79	-0.0823431
2303.21	0.452582
2304.63	0.167563
2306.04	0.243447
2307.46	-0.108293
2308.88	0.212855
2310.3	0.352511
2311.71	0.162693
2313.13	0.219505
2314.54	0.606111
2315.96	-0.0103846
2317.37	0.774027
2318.79	0.25768
2320.2	-0.028657
2321.62	0.623721
2323.03	0.498054
2324.45	0.401968
2325.86	0.319128
2327.27	0.926492
2328.69	0.839843
2330.1	1.0665
2331.51	0.553404
2332.92	0.338594
2334.34	-0.253292
2335.75	0.290535
2337.16	-0.169759
2338.57	-0.368073
2339.98	0.286664
2341.39	0.512321
2342.8	0.113314
2344.21	0.206767
2345.63	0.284087
2347.04	0.165175
2348.45	-0.330038
2349.85	0.303586
2351.26	0.183265
2352.67	-0.166941
2354.08	0.151147
2355.49	0.223098
2356.9	-0.112653
2358.3	-0.13872
2359.71	0.241612
2361.12	0.0532188
2362.53	0.0921783
2363.93	0.309057
2365.34	-0.0246954
2366.75	-0.147381
2368.15	-0.268984
2369.56	-0.0501966
2370.97	-0.410206
2372.37	0.0375957
2373.77	0.888946
2375.18	-0.255802
2376.59	0.385812
2377.99	-0.631014
2379.39	0.0224648
2380.8	-0.0659571
2382.2	-0.300521
2383.6	0.729406
2385.01	0.092886
2386.41	0.0655613
2387.81	0.0395689
2389.21	-0.287623
2390.62	-0.437263
2392.02	0.210954
2393.42	0.159702
2394.82	0.221032
2396.22	0.140241
2397.62	-0.146201
2399.02	-0.082118
2400.42	0.125603
2401.82	-0.524015
2403.22	0.303574
2404.62	-0.378086
2406.02	0.288657
2407.42	-0.141258
2408.82	0.252778
2410.22	-0.114944
2411.62	-0.117609
2413.01	-0.372536
2414.41	-0.467232
2415.81	0.0416689
2417.21	-0.0966616
2418.6	0.114609
2420	-0.0377779
2421.4	0.17394
2422.79	0.147573
2424.19	0.136636
2425.59	0.521918
2426.98	0.70201
2428.38	0.122499
2429.77	-0.138863
2431.17	0.44148
2432.56	0.181242
2433.95	0.20588
2435.35	0.403684
2436.74	0.488175
2438.14	0.411539
2439.53	0.380663
2440.92	0.840723
2442.31	0.632917
2443.71	0.726315
2445.1	0.0421467
2446.49	0.151046
2447.88	0.132865
2449.27	0.732425
2450.67	0.540111
2452.06	0.554476
2453.45	0.395905
2454.84	-0.0461187
2456.23	0.0349731
2457.62	0.559404
2459.01	0.00799942
2460.4	-0.196191
2461.79	0.563009
2463.18	0.119378
2464.57	-0.0562029
2465.95	0.131134
2467.34	0.633859
2468.73	0.0157804
2470.12	0.0603485
2471.5	-0.195274
2472.89	0.273065
2474.28	0.235922
2475.67	0.182142
2477.05	0.112167
2478.44	0.0579147
2479.82	-0.137267
2481.21	0.342311
2482.6	0.100327
2483.98	-0.00105381
2485.37	-0.666545
2486.75	0.730003
2488.13	0.405239
2489.52	0.360675
2490.9	-0.0575619
2492.29	-0.334138
2493.67	0.478308
2495.05	-0.244725
2496.44	0.073761
2497.82	-0.211096
2499.2	0.371609
2500.58	0.0249653
2501.97	-0.245002
2503.35	0.564973
2504.73	-0.0779247
2506.11	0.0192175
2507.49	-0.0997028
2508.87	-0.279707
2510.25	0.186256
2511.63	0.299306
2513.01	0.413248
2514.39	0.390396
2515.77	0.123939
2517.15	-0.0339985
2518.53	-0.0686913
2519.91	0.156666
2521.29	-0.0615101
2522.67	0.0554132
2524.05	0.155716
2525.42	-0.583407
2526.8	-0.0730486
2528.18	0.482673
2529.55	-0.283729
2530.93	-0.0135937
2532.31	0.349879
2533.69	-0.181184
2535.06	0.0788364
2536.44	0.262824
2537.81	0.00528431
2539.19	0.035017
2540.56	0.0787144
2541.94	0.470906
2543.31	-0.198868
2544.69	-0.199681
2546.06	0.377577
2547.44	0.0464716
2548.81	0.505402
2550.18	0.463861
2551.56	0.527827
2552.93	0.34761
2554.3	-0.228667
2555.67	0.164935
2557.04	-0.155354
2558.42	0.161175
2559.79	-0.128488
2561.16	0.128337
2562.53	0.340515
2563.9	0.341341
2565.27	0.0548601
2566.64	0.177874
2568.01	-0.108174
2569.38	0.409005
2570.75	-0.089283
2572.12	-0.0419188
2573.49	0.20261
2574.86	0.219893
2576.23	0.343338
2577.6	0.360537
2578.97	0.134784
2580.33	0.257244
2581.7	0.530714
2583.07	0.136472
2584.44	-0.136789
2585.8	-0.0311356
2587.17	-0.0769281
2588.54	0.665624
2589.9	0.498947
2591.27	0.22602
2592.64	0.134275
2594	-0.185841
2595.37	0.159066
2596.73	0.653542
2598.1	0.707582
2599.46	0.413219
2600.83	0.572618
2602.19	0.0982742
2603.55	0.349914
2604.92	0.0589151
2606.28	0.582967
2607.64	-0.431893
2609.01	0.451945
2610.37	0.504589
2611.73	0.209005
2613.09	0.0324898
2614.46	0.0354004
2615.82	0.353019
2617.18	-0.0492496
2618.54	0.658348
2619.9	0.21361
2621.26	0.637888
2622.62	0.0910864
2623.98	0.515944
2625.34	0.507375
2626.7	0.394045
2628.06	0.190947
2629.42	0.523711
2630.78	0.0522099
2632.14	-0.017354
2633.5	0.536963
2634.86	0.125583
2636.21	0.471136
2637.57	0.149265
2638.93	0.346176
2640.29	-0.18196
2641.64	0.592004
2643	0.493624
2644.36	0.0117779
2645.71	0.150069
2647.07	0.361271
2648.43	0.998247
2649.78	1.01475
2651.14	0.50087
2652.49	0.149073
2653.85	0.50249
2655.2	0.577811
2656.56	0.127372
2657.91	0.264703
2659.26	0.622607
2660.62	0.600592
2661.97	0.75374
2663.32	0.379983
2664.68	0.691478
2666.03	0.12623
2667.38	0.39182
2668.74	0.263638
2670.09	0.354298
2671.44	0.387402
2672.79	-0.159828
2674.14	0.107703
2675.49	0.506396
2676.84	0.296202
2678.19	0.261164
2679.54	0.198353
2680.89	-0.0948982
2682.24	0.787948
2683.59	0.353199
2684.94	0.398336
2686.29	0.284588
2687.64	0.489859
2688.99	0.243421
2690.34	0.400931
2691.69	0.715308
2693.03	0.185651
2694.38	0.655551
2695.73	0.704351
2697.08	0.768485
2698.42	0.805557
2699.77	0.570074
2701.12	0.93094
2702.46	0.743849
2703.81	0.659678
2705.15	0.460243
2706.5	1.14547
2707.85	1.07634
2709.19	0.81778
2710.54	0.935988
2711.88	0.995741
2713.22	1.17154
2714.57	1.11476
2715.91	0.912433
2717.26	1.75693
2718.6	1.0303
2719.94	1.87423
2721.29	1.14596
2722.63	1.17355
2723.97	2.04462
2725.31	1.45941
2726.66	1.68867
2728	1.96103
2729.34	1.49074
2730.68	1.25313
2732.02	1.35012
2733.36	1.7527
2734.7	1.31182
2736.04	1.39494
2737.38	1.59461
2738.72	1.02344
2740.06	1.17903
2741.4	1.04303
2742.74	0.920583
2744.08	0.186712
2745.42	-0.0246286
2746.76	0.634829
2748.09	0.204787
2749.43	0.935872
2750.77	0.564414
2752.11	0.324096
2753.45	0.664006
2754.78	0.323006
2756.12	0.243111
2757.46	0.264858
2758.79	0.113254
2760.13	0.0925312
2761.46	0.723729
2762.8	0.328167
2764.14	0.106761
2765.47	-0.27379
2766.8	0.502423
2768.14	0.0186129
2769.47	-0.0185957
2770.81	-0.274689
2772.14	0.261789
2773.48	-0.531612
2774.81	-0.315309
2776.14	0.476684
2777.48	0.0877142
2778.81	-0.357319
2780.14	-0.125548
2781.47	-0.137757
2782.8	0.596438
2784.14	0.210907
2785.47	0.0981655
2786.8	0.343906
2788.13	0.0461521
2789.46	0.13618
2790.79	-0.230189
2792.12	0.277014
2793.45	0.598845
2794.78	-0.136992
2796.11	-0.18713
2797.44	0.176188
2798.77	-0.0898409
2800.1	0.500022
2801.43	0.0618382
2802.76	0.0515299
2804.09	0.325856
2805.41	0.157695
2806.74	0.344652
2808.07	0.302796
2809.4	0.288785
2810.72	0.530444
2812.05	0.503052
2813.38	0.335628
2814.71	0.723525
2816.03	0.333887
2817.36	0.484707
2818.68	1.01914
2820.01	1.00085
2821.33	0.981855
2822.66	0.46582
2823.98	0.997431
2825.31	1.21662
2826.63	1.30834
2827.96	1.57077
2829.28	1.77746
2830.6	1.85754
2831.93	2.3485
2833.25	2.48548
2834.57	3.5136
2835.9	4.83779
2837.22	5.736
2838.54	6.53389
2839.86	6.79352
2841.18	9.58399
2842.5	11.1869
2843.83	12.1832
2845.15	14.0576
2846.47	16.4707
2847.79	17.2317
2849.11	18.3603
2850.43	18.0605
2851.75	18.4658
2853.07	18.4171
2854.39	18.1976
2855.71	17.7657
2857.03	17.7435
2858.35	17.6085
2859.66	17.0499
2860.98	16.6886
2862.3	17.5689
2863.62	17.1915
2864.94	18.8171
2866.25	17.3808
2867.57	18.0191
2868.89	17.9112
2870.2	19.1157
2871.52	20.0525
2872.84	19.0434
2874.15	19.8219
2875.47	21.9911
2876.78	21.8038
2878.1	22.8242
2879.41	23.2659
2880.73	23.1459
2882.04	23.9983
2883.36	23.2806
2884.67	23.4653
2885.99	23.2449
2887.3	22.1828
2888.61	21.8916
2889.93	21.8365
2891.24	21.8628
2892.55	21.9713
2893.86	21.5889
2895.18	22.0622
2896.49	21.6838
2897.8	22.7224
2899.11	22.7285
2900.42	22.3316
2901.73	21.9223
2903.05	22.6468
2904.36	22.4765
2905.67	22.7127
2906.98	22.5171
2908.29	22.5059
2909.6	22.1196
2910.91	22.3366
2912.21	23.0157
2913.52	22.1248
2914.83	23.3998
2916.14	22.5837
2917.45	23.1348
2918.76	23.9205
2920.07	23.2786
2921.37	23.4222
2922.68	23.6392
2923.99	23.7905
2925.29	24.043
2926.6	23.7103
2927.91	24.9995
2929.22	24.4703
2930.52	24.317
2931.83	24.1903
2933.13	23.8672
2934.44	23.2926
2935.74	22.9001
2937.05	23.3886
2938.35	22.648
2939.66	21.9921
2940.96	20.1499
2942.26	20.2384
2943.57	19.1002
2944.87	18.2447
2946.18	18.5664
2947.48	16.8893
2948.78	16.3581
2950.08	15.838
2951.39	15.4115
2952.69	15.3587
2953.99	14.9107
2955.29	14.8119
2956.59	14.2114
2957.9	14.1335
2959.2	14.1738
2960.5	12.9879
2961.8	12.6744
2963.1	12.4745
2964.4	12.6663
2965.7	11.7878
2967	11.0173
2968.3	11.5791
2969.6	10.1428
2970.9	10.2529
2972.19	9.64618
2973.49	9.94066
2974.79	9.22191
2976.09	8.60023
2977.39	8.7645
2978.68	7.58791
2979.98	7.56275
2981.28	7.28189
2982.58	6.66272
2983.87	6.38222
2985.17	6.14623
2986.47	5.98352
2987.76	5.07895
2989.06	4.94918
2990.35	4.93247
2991.65	4.52152
2992.94	4.31975
2994.24	4.21432
2995.53	4.00878
2996.83	3.57763
2998.12	3.18874
2999.42	2.91297
3000.71	2.86282
3002	2.51949
3003.3	2.23331
3004.59	2.01769
3005.88	1.45186
3007.18	1.92157
3008.47	1.48027
3009.76	1.63948
3011.05	0.889276
3012.34	1.25664
3013.64	0.67497
3014.93	0.94536
3016.22	0.729076
3017.51	0.862467
3018.8	0.426229
3020.09	0.463639
3021.38	0.375496
3022.67	0.716974
3023.96	-0.0118837
3025.25	0.202416
3026.54	-0.123967
3027.83	-0.227416
3029.12	0.33477
3030.41	-0.17909
3031.69	0.014307
3032.98	0.154139
3034.27	-0.285033
3035.56	0.117144
3036.84	0.296666
3038.13	-0.008605
3039.42	0.0282612
3040.71	0.571541
3041.99	0.110309
3043.28	-0.0205269
3044.57	-0.0399837
3045.85	0.134674
3047.14	0.0255737
3048.42	0.493773
3049.71	0.432732
3050.99	0.251564
3052.28	-0.255512
3053.56	-0.011775
3054.85	0.476835
3056.13	0.391196
3057.41	0.127069
3058.7	0.611681
3059.98	0.401228
3061.26	0.545643
3062.55	0.365208
3063.83	0.119253
3065.11	0.134267
3066.39	1.02165
3067.68	0.225004
3068.96	0.0953722
3070.24	0.332918
3071.52	-0.205686
3072.8	0.342341
3074.08	-0.226082
3075.36	0.156139
3076.65	-0.195441
3077.93	0.431477
3079.21	-0.310626
3080.49	-0.00537872
3081.77	-0.240273
3083.04	0.368004
3084.32	-0.148401
3085.6	-0.433779
3086.88	0.230601
3088.16	0.555094
3089.44	0.431048
3090.72	0.130336
3091.99	0.00629139
3093.27	0.398311
3094.55	0.180741
3095.83	0.235212
3097.1	0.249516
3098.38	0.0472889
3099.66	0.333179
3100.93	0.456649
3102.21	0.160755
3103.49	0.353206
3104.76	0.844466
3106.04	0.606219
3107.31	0.410317
3108.59	0.297466
3109.86	0.186455
3111.14	0.875991
3112.41	0.781875
3113.69	0.661602
3114.96	0.405998
3116.23	1.07221
3117.51	1.01913
3118.78	0.381729
3120.05	1.47926
3121.33	0.989204
3122.6	0.892154
3123.87	0.741156
3125.14	0.861904
3126.41	1.05133
3127.69	0.863075
3128.96	0.676171
3130.23	1.22045
3131.5	1.03523
3132.77	1.33691
3134.04	0.882029
3135.31	1.15636
3136.58	1.34929
3137.85	1.43399
3139.12	1.69376
3140.39	1.42846
3141.66	1.60815
3142.93	1.88258
3144.2	1.87582
3145.47	2.05841
3146.74	1.97418
3148	2.06567
3149.27	1.78366
