200.563	0.352187
202.377	0.390932
204.194	0.430799
206.008	-0.0878372
207.821	0.0747528
209.634	0.406417
211.449	0.639052
213.262	0.408358
215.074	1.21935
216.885	0.622558
218.699	-0.0702505
220.51	-0.156514
222.321	-0.386876
224.131	0.27838
225.941	0.774348
227.751	0.593404
229.562	-0.408983
231.371	-0.59079
233.18	0.0954657
234.988	-0.183104
236.796	0.11841
238.603	0.542694
240.411	-0.0183811
242.219	-0.0225725
244.026	-0.314983
245.832	0.284976
247.638	0.931528
249.443	0.657141
251.248	0.0165186
253.053	-0.0479984
254.857	0.0542078
256.661	0.276253
258.465	0.426687
260.268	-0.312473
262.071	-0.109806
263.874	-0.0981007
265.678	-0.422651
267.48	0.433747
269.282	0.205149
271.083	-0.265792
272.884	0.177846
274.684	-0.103675
276.484	-0.0497561
278.284	0.387329
280.084	0.171151
281.883	0.650586
283.682	0.501616
285.48	0.206898
287.276	-0.232285
289.074	0.552073
290.871	-0.29306
292.668	0.0134897
294.465	0.201724
296.261	0.104487
298.057	0.558133
299.853	-0.0154104
301.648	0.533568
303.443	0.460217
305.237	0.695498
307.032	0.38074
308.823	0.280482
310.617	-0.295568
312.41	0.654387
314.203	-0.394426
315.995	0.321002
317.788	0.324112
319.579	0.948356
321.369	0.430315
323.16	0.270314
324.951	0.372999
326.741	0.237027
328.531	0.506639
330.321	0.0345106
332.108	0.277869
333.897	0.519278
335.686	0.231622
337.474	0.180401
339.26	0.29406
341.048	0.405738
342.835	-0.0812969
344.622	0.24432
346.406	-0.361305
348.192	-0.440538
349.978	0.0297775
351.764	0.284988
353.547	0.324521
355.332	-0.639169
357.116	0.327584
358.901	0.386167
360.682	-0.366439
362.466	0.332407
364.249	0.101918
366.03	0.702313
367.812	0.944587
369.594	0.545062
371.374	0.453125
373.155	0.123894
374.936	0.858273
376.715	0.670468
378.495	-0.294418
380.273	0.227628
382.053	0.279334
383.832	0.638185
385.609	0.527952
387.388	-0.403168
389.164	0.452807
390.942	0.252612
392.72	0.757891
394.495	0.207007
396.272	0.454973
398.047	0.773445
399.823	0.26961
401.597	0.657681
403.372	0.175879
405.145	1.00837
406.92	0.266389
408.693	0.838633
410.467	-0.373706
412.239	-0.154021
414.012	0.464936
415.783	0.0756474
417.556	0.0626841
419.327	0.824809
421.099	-0.0790434
422.869	-0.396687
424.64	0.364669
426.409	0.749309
428.18	0.170405
429.948	-0.0569201
431.718	0.372922
433.486	0.28672
435.253	0.599861
437.022	0.373119
438.789	0.497502
440.558	0.338461
442.324	0.317795
444.089	0.575851
445.857	0.784449
447.622	0.452954
449.386	-0.11234
451.153	0.0476723
452.917	-0.259097
454.682	0.111227
456.446	0.247843
458.208	0.779922
459.973	0.00818348
461.735	0.354518
463.497	-0.0181808
465.259	0.100092
467.022	0.082201
468.783	0.787916
470.544	0.240592
472.306	0.949886
474.066	-0.0173969
475.825	0.759239
477.585	0.112633
479.346	0.721712
481.104	0.910292
482.862	0.0510082
484.62	0.404253
486.38	0.620122
488.137	-0.210231
489.894	0.173608
491.65	0.465847
493.407	1.03973
495.164	1.70848
496.92	1.25465
498.675	0.612131
500.43	0.71836
502.184	0.870899
503.939	0.552774
505.694	1.33753
507.448	0.922057
509.201	0.245539
510.954	0.860884
512.706	0.603789
514.459	-0.0786362
516.21	1.14304
517.962	0.575292
519.715	0.876501
521.466	0.518655
523.216	0.559808
524.966	0.225142
526.716	1.04023
528.466	0.799444
530.215	0.722789
531.964	0.669112
533.712	0.474065
535.46	0.254475
537.208	1.22536
538.955	0.698591
540.703	0.311431
542.449	0.320174
544.196	0.537819
545.942	0.847844
547.688	0.36833
549.433	0.608797
551.178	0.154359
552.923	0.834455
554.667	0.0808496
556.412	0.644748
558.155	0.377888
559.899	0.826303
561.642	-0.0834503
563.385	-0.278055
565.127	0.401688
566.867	0.438161
568.609	0.590341
570.35	0.238839
572.092	0.990409
573.832	0.917987
575.573	0.205442
577.313	-0.620137
579.053	-0.0674486
580.79	0.394723
582.529	0.535742
584.268	0.0324907
586.006	0.309598
587.745	0.470365
589.482	-0.198501
591.218	0.580996
592.955	0.0484705
594.692	-0.346148
596.428	0.271605
598.164	-0.0999794
599.898	0.425263
601.634	-0.292756
603.369	-0.0920477
605.104	0.290774
606.836	0.166256
608.57	-0.119788
610.304	0.145179
612.037	0.0434504
613.769	-0.0343037
615.501	-0.0424728
617.234	0.0182734
618.966	-0.310957
620.696	0.16002
622.427	-0.125857
624.159	0.182027
625.887	0.238283
627.618	-0.0466671
629.348	-0.237752
631.076	-0.266328
632.806	0.437605
634.535	0.207178
636.262	0.912154
637.99	0.816092
639.716	0.55698
641.444	0.112069
643.172	0.622101
644.897	0.19639
646.624	-0.137109
648.348	0.0549612
650.075	0.500444
651.801	-0.276593
653.524	0.314316
655.249	-0.318625
656.972	0.393343
658.697	0.173229
660.419	-0.070715
662.143	-0.134232
663.865	-0.474708
665.588	0.0048914
667.309	0.116764
669.032	0.273634
670.752	0.134165
672.474	0.408824
674.194	0.0683002
675.915	0.646567
677.634	0.76848
679.355	0.201707
681.073	0.207421
682.793	0.326116
684.511	0.419477
686.23	0.832996
687.947	0.784222
689.664	-0.00294685
691.382	0.0612812
693.098	0.516391
694.816	0.0262394
696.531	0.295029
698.247	0.0558758
699.963	0.413735
701.678	0.401975
703.392	0.320201
705.108	0.191795
706.821	-0.258267
708.534	0.232068
710.249	-0.057827
711.962	0.59096
713.674	0.346276
715.388	0.604524
717.099	-0.0280943
718.81	0.435423
720.523	0.556473
722.234	0.518137
723.944	1.20797
725.654	1.00996
727.365	0.289557
729.075	0.523022
730.784	-0.0152006
732.492	1.191
734.202	0.358443
735.91	0.431705
737.618	-0.262411
739.325	0.669751
741.034	0.181423
742.741	0.213289
744.447	0.539318
746.153	0.686642
747.859	0.970476
749.564	0.850907
751.271	0.822862
752.976	0.95382
754.681	0.793986
756.385	1.24347
758.088	1.49255
759.792	1.60851
761.495	1.34268
763.2	1.16735
764.902	1.17205
766.604	1.35615
768.306	1.15397
770.008	1.9214
771.709	1.28458
773.41	1.48277
775.11	1.3413
776.811	1.17795
778.51	1.7171
780.21	1.69286
781.909	1.35319
783.608	1.69239
785.307	1.39653
787.005	1.41472
788.703	2.33441
790.401	1.28148
792.098	1.60546
793.795	1.63352
795.492	1.32293
797.188	1.41971
798.884	1.22555
800.58	1.95655
802.276	1.3162
803.971	1.66665
805.665	1.56703
807.36	0.814918
809.054	0.533867
810.748	1.97978
812.441	1.94259
814.135	1.21027
815.826	2.00112
817.518	1.717
819.21	1.50052
820.902	1.70886
822.594	1.49345
824.285	1.92591
825.976	1.91395
827.665	1.52601
829.355	1.16382
831.045	1.20606
832.735	1.8977
834.424	1.6785
836.111	1.50482
837.8	1.41992
839.488	1.75782
841.177	1.71438
842.864	1.31187
844.55	1.13218
846.237	1.33324
847.924	0.776286
849.61	1.56402
851.295	1.88558
852.98	1.69449
854.666	1.4143
856.349	0.706451
858.034	1.7048
859.719	1.64523
861.403	0.772786
863.085	1.78995
864.769	1.4317
866.452	1.02705
868.133	1.56855
869.816	1.34292
871.498	1.13941
873.179	1.47709
874.86	0.95735
876.54	1.36275
878.221	1.47488
879.902	0.819431
881.58	0.705228
883.26	1.19973
884.938	1.85092
886.618	0.897811
888.297	1.95136
889.974	1.17554
891.653	0.917177
893.329	1.55842
895.007	0.802243
896.683	0.810494
898.36	1.1544
900.035	0.666606
901.712	1.568
903.387	1.03458
905.063	0.792793
906.737	0.529622
908.412	0.624485
910.085	0.742436
911.76	0.394016
913.433	1.1138
915.107	1.05552
916.779	0.930878
918.452	1.20529
920.124	1.03656
921.797	0.91307
923.467	0.835359
925.138	0.958468
926.81	0.730331
928.48	0.967812
930.151	0.897645
931.82	1.11511
933.489	1.00192
935.16	1.41835
936.828	1.48235
938.496	0.753469
940.165	0.819986
941.833	0.490826
943.5	0.559512
945.168	0.319023
946.834	1.02634
948.5	1.46668
950.168	1.37497
951.834	0.421515
953.499	1.45372
955.163	0.965905
956.83	0.613737
958.494	0.375412
960.158	1.02288
961.821	0.899815
963.487	0.798456
965.15	1.20365
966.812	0.278489
968.474	0.832345
970.138	0.786464
971.8	0.761791
973.461	0.339678
975.123	0.671186
976.783	0.894247
978.446	0.831534
980.106	1.04612
981.766	1.26032
983.425	1.19621
985.084	1.08549
986.743	1.06087
988.402	0.392604
990.06	-0.0553045
991.72	0.955147
993.378	0.661183
995.035	1.16234
996.692	0.890935
998.349	1.17101
1000.01	1.23014
1001.66	0.936384
1003.32	1.25868
1004.97	1.03041
1006.63	1.24182
1008.28	0.640644
1009.94	1.20369
1011.59	0.670078
1013.25	0.225344
1014.9	0.526277
1016.55	0.564664
1018.21	0.822416
1019.86	1.03715
1021.51	0.225423
1023.16	0.879865
1024.81	1.01067
1026.47	1.20766
1028.12	1.14242
1029.77	1.03271
1031.42	1.62044
1033.07	1.55088
1034.72	1.39209
1036.37	1.66788
1038.02	1.57196
1039.67	1.45438
1041.31	2.09909
1042.96	1.83171
1044.61	1.69719
1046.26	1.95617
1047.91	1.80481
1049.55	1.89441
1051.2	1.81184
1052.84	1.49124
1054.49	1.04057
1056.14	1.22
1057.78	1.46436
1059.43	1.22986
1061.07	1.34244
1062.72	1.32361
1064.36	0.999262
1066	0.67375
1067.65	0.977395
1069.29	0.932107
1070.93	1.34214
1072.58	1.42612
1074.22	1.61914
1075.86	1.50966
1077.5	1.16333
1079.14	1.12217
1080.78	1.06019
1082.42	1.32343
1084.06	1.0001
1085.7	0.848368
1087.34	1.12767
1088.98	1.16603
1090.62	0.661412
1092.26	1.19384
1093.9	1.55195
1095.54	1.43504
1097.17	0.176959
1098.81	0.817897
1100.45	0.986468
1102.09	1.39384
1103.72	1.58798
1105.36	-0.00164509
1106.99	1.01208
1108.63	0.3048
1110.27	0.886508
1111.9	0.670813
1113.53	0.625295
1115.17	0.642834
1116.8	0.981466
1118.43	0.976828
1120.07	1.14441
1121.7	0.349495
1123.33	1.39714
1124.97	1.4824
1126.6	0.435079
1128.23	1.20681
1129.86	0.696253
1131.49	1.29818
1133.12	0.254301
1134.75	0.877696
1136.38	0.324702
1138.01	1.18094
1139.64	-0.0152349
1141.27	0.773942
1142.9	0.409551
1144.53	0.728189
1146.16	0.365186
1147.78	0.813357
1149.41	0.111808
1151.04	0.412212
1152.67	0.307859
1154.29	0.394762
1155.92	0.991936
1157.54	0.226987
1159.17	0.420055
1160.8	0.316316
1162.42	0.61785
1164.05	0.622829
1165.67	-0.115819
1167.29	0.888673
1168.92	0.44611
1170.54	0.1293
1172.16	0.341668
1173.79	0.254604
1175.41	0.781529
1177.03	0.204812
1178.65	-0.0318365
1180.28	-0.50018
1181.9	0.407983
1183.52	-0.396607
1185.14	0.00403881
1186.76	0.825415
1188.38	-0.444983
1190	-0.218726
1191.62	0.089201
1193.24	0.28963
1194.86	0.299701
1196.47	0.666222
1198.09	0.802576
1199.71	0.647898
1201.33	0.684304
1202.95	0.619334
1204.56	0.45305
1206.18	1.14469
1207.8	0.711045
1209.41	0.548933
1211.03	0.594458
1212.64	0.346115
1214.26	0.55393
1215.87	0.654852
1217.49	0.940791
1219.1	0.70556
1220.71	1.40481
1222.33	1.19109
1223.94	1.5594
1225.55	1.41137
1227.16	0.996355
1228.78	1.1625
1230.39	1.47472
1232	1.2921
1233.61	1.73101
1235.22	1.82003
1236.83	1.35244
1238.44	1.46476
1240.05	1.88808
1241.66	1.42239
1243.27	2.09393
1244.88	1.5853
1246.49	2.0893
1248.1	1.30915
1249.71	1.52136
1251.32	1.89867
1252.92	1.92455
1254.53	1.20671
1256.14	1.44163
1257.74	1.90561
1259.35	1.75037
1260.96	1.45117
1262.56	1.9599
1264.17	2.19971
1265.77	2.0247
1267.38	2.26325
1268.98	2.16898
1270.59	2.5503
1272.19	1.78994
1273.79	2.16868
1275.4	1.67552
1277	1.92746
1278.6	1.47399
1280.21	2.09683
1281.81	2.18069
1283.41	1.97502
1285.01	2.49395
1286.61	1.95936
1288.21	2.62504
1289.81	2.48569
1291.41	1.72706
1293.01	2.62133
1294.61	2.93596
1296.21	2.42269
1297.81	3.00184
1299.41	2.71177
1301.01	3.07986
1302.6	3.15742
1304.2	2.71914
1305.8	2.19859
1307.4	2.54098
1308.99	2.38996
1310.59	2.4852
1312.19	3.1539
1313.78	2.86108
1315.38	2.46791
1316.97	2.36239
1318.57	2.42089
1320.16	2.80528
1321.76	3.14711
1323.35	3.24211
1324.94	2.84685
1326.54	2.6335
1328.13	2.37953
1329.72	3.09875
1331.32	2.50387
1332.91	3.42829
1334.5	3.2639
1336.09	2.96054
1337.68	2.59763
1339.27	2.61719
1340.87	3.17839
1342.45	2.64931
1344.04	2.21938
1345.64	2.61221
1347.22	2.46307
1348.81	2.31638
1350.4	1.85277
1351.99	2.55283
1353.58	1.49535
1355.17	2.35878
1356.75	2.34294
1358.34	1.20792
1359.93	1.88968
1361.51	1.85109
1363.1	1.75173
1364.69	2.0508
1366.27	2.25024
1367.86	1.99244
1369.44	1.73632
1371.03	1.72083
1372.61	2.32378
1374.2	1.9928
1375.78	1.66257
1377.37	1.79007
1378.95	1.79755
1380.53	1.84361
1382.11	1.78864
1383.7	1.8316
1385.28	2.03239
1386.86	1.73581
1388.44	2.13472
1390.02	2.01802
1391.6	1.72389
1393.19	1.64903
1394.77	1.35645
1396.35	2.29312
1397.93	1.88047
1399.51	1.90284
1401.08	1.96367
1402.66	1.88522
1404.24	1.70793
1405.82	2.48054
1407.4	2.40362
1408.97	2.34754
1410.55	1.344
1412.13	2.03912
1413.71	1.8448
1415.28	2.24146
1416.86	2.0057
1418.43	2.42015
1420.01	2.26334
1421.59	2.20646
1423.16	2.97826
1424.73	2.2363
1426.31	2.46032
1427.88	3.09829
1429.46	2.65333
1431.03	2.8961
1432.6	2.56671
1434.18	3.7314
1435.75	3.71489
1437.32	4.78
1438.89	4.35176
1440.46	4.53431
1442.04	4.63953
1443.61	3.99888
1445.18	3.88935
1446.75	4.80212
1448.32	3.82813
1449.89	4.56473
1451.46	4.20106
1453.03	4.05429
1454.6	3.63253
1456.16	4.07622
1457.73	3.77134
1459.3	3.62214
1460.87	4.21846
1462.44	3.86772
1464	3.59373
1465.57	2.74866
1467.14	2.70947
1468.7	3.57387
1470.27	2.67247
1471.83	2.5186
1473.4	2.18958
1474.96	2.23415
1476.53	2.10273
1478.09	1.97143
1479.66	2.17333
1481.22	1.74786
1482.78	1.69473
1484.35	1.75902
1485.91	1.94037
1487.47	1.02396
1489.04	1.55536
1490.6	1.71237
1492.16	1.29968
1493.72	1.88134
1495.28	1.11366
1496.84	1.53513
1498.4	1.17699
1499.96	1.15077
1501.52	1.72756
1503.08	1.21853
1504.64	1.13767
1506.2	0.979774
1507.76	0.802128
1509.32	1.20321
1510.88	0.656686
1512.44	0.669403
1513.99	1.18207
1515.55	0.617317
1517.11	0.7649
1518.66	0.682859
1520.22	0.295187
1521.78	0.635583
1523.33	0.783742
1524.89	0.873419
1526.44	0.370749
1528	1.27735
1529.55	0.754927
1531.11	1.41107
1532.66	1.34552
1534.21	0.921401
1535.77	1.25596
1537.32	1.49635
1538.87	0.717838
1540.43	0.865155
1541.98	1.55855
1543.53	0.575603
1545.08	1.81277
1546.63	1.48838
1548.18	1.50218
1549.74	0.99112
1551.29	1.04302
1552.84	1.43208
1554.39	1.52247
1555.94	1.61431
1557.48	1.63338
1559.03	1.43075
1560.58	1.54745
1562.13	1.51667
1563.68	0.871423
1565.23	1.15956
1566.78	1.33587
1568.32	1.26932
1569.87	1.35164
1571.42	1.22821
1572.96	0.917801
1574.51	1.35391
1576.05	1.80873
1577.6	0.863671
1579.14	1.61789
1580.69	1.71943
1582.24	1.72849
1583.78	1.10329
1585.32	1.33813
1586.87	1.87279
1588.41	2.03394
1589.95	1.54001
1591.5	1.68166
1593.04	1.63561
1594.58	1.90765
1596.12	1.78644
1597.67	1.38448
1599.21	1.62043
1600.75	2.15749
1602.29	2.28267
1603.83	1.76941
1605.37	1.63061
1606.91	2.22311
1608.45	1.44149
1609.99	1.33394
1611.53	1.71246
1613.07	2.10731
1614.6	2.12492
1616.14	1.35436
1617.68	1.78489
1619.22	1.71044
1620.75	1.91861
1622.29	1.71625
1623.83	1.64586
1625.37	1.72522
1626.9	2.21538
1628.44	0.982611
1629.97	1.73152
1631.51	1.33852
1633.04	1.2631
1634.58	1.71076
1636.11	1.82301
1637.65	2.08537
1639.18	1.75162
1640.72	2.3872
1642.25	2.63033
1643.78	1.71752
1645.31	2.16278
1646.85	2.56922
1648.38	1.76702
1649.91	2.8046
1651.44	2.37607
1652.97	2.96953
1654.5	2.22891
1656.03	2.58301
1657.56	2.38089
1659.1	2.75214
1660.62	2.54763
1662.15	2.28618
1663.68	2.35653
1665.21	2.61084
1666.74	2.27465
1668.27	2.65945
1669.8	2.01335
1671.32	1.79326
1672.85	2.32969
1674.38	1.83509
1675.91	1.45089
1677.43	1.76537
1678.96	1.83926
1680.49	2.05898
1682.01	1.83663
1683.54	1.00828
1685.06	1.7041
1686.59	1.88596
1688.11	1.38998
1689.64	1.73758
1691.16	1.42596
1692.68	1.37091
1694.21	1.27925
1695.73	1.42514
1697.25	1.18689
1698.78	0.893741
1700.3	1.31219
1701.82	0.690022
1703.34	0.541937
1704.86	1.12187
1706.39	0.936221
1707.91	0.0234671
1709.43	0.528872
1710.95	0.107998
1712.47	0.558316
1713.99	0.700055
1715.51	0.624395
1717.02	0.458341
1718.54	0.852632
1720.06	0.415584
1721.58	0.322229
1723.1	-0.00477123
1724.62	0.4984
1726.13	0.6962
1727.65	0.679194
1729.17	0.321281
1730.68	0.394323
1732.2	0.818764
1733.72	0.655953
1735.23	0.323448
1736.75	0.604568
1738.26	0.492924
1739.78	0.241583
1741.29	0.243226
1742.81	0.752518
1744.32	0.492321
1745.84	0.493773
1747.35	0.362646
1748.86	0.453458
1750.37	0.541449
1751.89	0.0573788
1753.4	0.290606
1754.91	0.301992
1756.42	0.386896
1757.93	0.406161
1759.45	0.473262
1760.96	-0.198855
1762.47	0.368479
1763.98	0.369891
1765.49	0.270264
1767	0.183148
1768.51	0.388012
1770.02	0.138931
1771.53	0.207987
1773.03	0.101325
1774.54	0.291058
1776.05	0.0795498
1777.56	0.233493
1779.07	0.521519
1780.57	0.427007
1782.08	0.15887
1783.59	0.04916
1785.09	0.230463
1786.6	0.0227747
1788.11	-0.280751
1789.61	0.318057
1791.12	0.421296
1792.62	0.244101
1794.13	0.0153456
1795.63	0.163787
1797.13	0.636723
1798.64	0.35311
1800.14	0.165676
1801.65	0.273283
1803.15	0.182567
1804.65	0.356856
1806.15	0.277742
1807.66	0.356698
1809.16	0.229404
1810.66	0.152653
1812.16	0.250584
1813.66	0.198599
1815.16	0.467135
1816.66	0.217233
1818.16	0.12917
1819.66	0.419364
1821.16	0.111348
1822.66	0.190989
1824.16	-0.0207386
1825.66	0.294782
1827.16	0.225958
1828.66	-0.155072
1830.16	0.24105
1831.65	0.299872
1833.15	0.300358
1834.65	0.0973358
1836.14	-0.186699
1837.64	-0.0967607
1839.14	-0.128879
1840.63	-0.116917
1842.13	0.465775
1843.62	0.297441
1845.12	0.239012
1846.61	0.317535
1848.11	0.28279
1849.6	0.132092
1851.1	0.36011
1852.59	-0.0114651
1854.08	0.223027
1855.58	-0.364273
1857.07	-0.00977325
1858.56	0.226233
1860.05	-0.0529547
1861.55	0.171298
1863.04	0.224044
1864.53	0.252894
1866.02	0.541177
1867.51	0.752676
1869	0.125336
1870.49	0.102745
1871.98	-0.0986862
1873.47	0.266604
1874.96	0.408785
1876.45	0.0830469
1877.94	0.327332
1879.43	-0.120212
1880.92	0.258802
1882.41	-0.342114
1882.51	-0.389802
1884	0.238284
1885.5	-0.0061245
1886.99	-0.0769596
1888.48	0.0780983
1889.98	0.215755
1891.47	0.00637817
1892.96	0.302834
1894.46	-0.25096
1895.95	0.344199
1897.44	0.522967
1898.93	0.458178
1900.42	0.392382
1901.91	0.290225
1903.41	0.134232
1904.9	0.428943
1906.39	-0.198253
1907.88	0.442829
1909.37	0.163922
1910.86	0.285195
1912.35	0.285824
1913.83	0.495117
1915.32	0.357614
1916.81	0.271852
1918.3	0.410933
1919.79	0.393548
1921.27	0.116261
1922.76	-0.143169
1924.25	0.256188
1925.74	0.535334
1927.22	0.0710917
1928.71	-0.288743
1930.19	-0.510161
1931.68	-0.126204
1933.17	-0.349621
1934.65	0.550624
1936.14	-0.0394039
1937.62	0.0617323
1939.11	0.3178
1940.59	0.124844
1942.07	-0.0325785
1943.56	0.43212
1945.04	0.535163
1946.52	0.173058
1948.01	0.103931
1949.49	0.120298
1950.97	0.135717
1952.45	0.150248
1953.93	0.38775
1955.42	0.0921469
1956.9	0.329636
1958.38	0.189904
1959.86	0.376941
1961.34	-0.0701141
1962.82	0.357534
1964.3	0.322063
1965.78	0.183394
1967.26	-0.178277
1968.74	-0.19803
1970.21	-0.0815477
1971.69	-0.119205
1973.17	0.11622
1974.65	0.0443869
1976.13	-0.0953617
1977.6	-0.0303783
1979.08	0.119713
1980.56	0.354625
1982.03	0.0451069
1983.51	0.245328
1984.99	0.241251
1986.46	-0.0683432
1987.94	0.469872
1989.41	0.0761709
1990.89	-0.299435
1992.36	0.273391
1993.84	0.102726
1995.31	-0.0501375
1996.78	0.0509081
1998.26	0.151857
1999.73	-0.0346603
2001.2	0.0821619
2002.68	0.16468
2004.15	0.735861
2005.62	-0.192849
2007.09	-0.0926552
2008.56	0.395606
2010.04	0.143697
2011.51	0.548858
2012.98	0.196563
2014.45	-0.27382
2015.92	0.332059
2017.39	0.0621614
2018.86	0.245607
2020.33	0.613179
2021.8	0.560388
2023.26	0.373678
2024.73	0.439549
2026.2	0.221343
2027.67	0.524486
2029.14	0.0239458
2030.61	0.195545
2032.07	0.452035
2033.54	0.558076
2035.01	0.277928
2036.47	0.249216
2037.94	0.0855608
2039.4	0.0895243
2040.87	0.530494
2042.33	-0.0872869
2043.8	0.287616
2045.27	0.411229
2046.73	0.569351
2048.19	0.47526
2049.66	0.700977
2051.12	0.352669
2052.59	0.086998
2054.05	0.578533
2055.51	0.545576
2056.97	0.140441
2058.44	-0.0629482
2059.9	0.373732
2061.36	0.0695963
2062.82	0.658525
2064.28	0.00275517
2065.74	0.138992
2067.21	0.713564
2068.67	0.396742
2070.13	0.652471
2071.59	0.352757
2073.05	0.456926
2074.51	0.274602
2075.96	0.226655
2077.42	0.447813
2078.88	0.21391
2080.34	0.265863
2081.8	0.603506
2083.26	0.384912
2084.72	0.283522
2086.17	0.316086
2087.63	0.263972
2089.09	0.295545
2090.54	0.830808
2092	0.542803
2093.45	0.640946
2094.91	0.5878
2096.37	0.802404
2097.82	0.329386
2099.28	0.442218
2100.73	0.320453
2102.19	0.633525
2103.64	0.479366
2105.09	0.710454
2106.55	0.492218
2108	0.508623
2109.45	0.775467
2110.91	0.60824
2112.36	0.489879
2113.81	0.686445
2115.26	0.814638
2116.72	0.708985
2118.17	0.603806
2119.62	0.367243
2121.07	1.02857
2122.52	0.513755
2123.97	0.895975
2125.42	0.482853
2126.87	0.765913
2128.32	0.865601
2129.77	0.715353
2131.22	0.597123
2132.67	0.825869
2134.11	0.739987
2135.56	0.936017
2137.01	0.620887
2138.46	0.605096
2139.91	0.92159
2141.35	1.02484
2142.8	0.980461
2144.25	0.72162
2145.7	0.777144
2147.14	1.19669
2148.59	1.4503
2150.03	0.792029
2151.48	1.04385
2152.92	1.36105
2154.37	1.06439
2155.81	0.999254
2157.26	1.81214
2158.7	1.28391
2160.15	1.46928
2161.59	1.32502
2163.03	1.08297
2164.47	1.42276
2165.92	1.68084
2167.36	1.57371
2168.8	1.482
2170.24	1.45499
2171.69	1.52568
2173.13	1.39482
2174.57	1.4123
2176.01	1.94473
2177.45	1.06384
2178.89	1.8797
2180.33	1.68233
2181.77	1.7186
2183.21	1.38963
2184.65	1.57644
2186.09	1.48057
2187.53	1.9005
2188.97	1.35538
2190.4	1.20951
2191.84	1.34636
2193.28	1.44922
2194.72	1.66733
2196.16	0.968057
2197.59	0.866343
2199.03	1.42822
2200.47	1.37352
2201.9	1.15272
2203.34	1.33103
2204.77	0.846932
2206.21	1.19298
2207.64	0.992549
2209.08	1.23922
2210.51	1.30285
2211.95	1.1173
2213.38	1.04696
2214.82	0.844443
2216.25	0.923369
2217.68	0.854786
2219.12	0.935852
2220.55	1.33092
2221.98	0.687577
2223.41	1.01604
2224.85	0.321961
2226.28	0.696766
2227.71	0.937901
2229.14	0.37258
2230.57	0.75925
2232	0.636856
2233.43	0.302197
2234.86	0.78649
2236.29	0.437774
2237.72	0.646106
2239.15	0.545922
2240.58	0.333486
2242.01	0.514196
2243.44	0.484003
2244.87	0.943487
2246.29	0.472636
2247.72	0.326605
2249.15	0.0320101
2250.58	0.517761
2252.01	0.64305
2253.43	-0.013257
2254.86	0.69664
2256.29	0.448842
2257.71	0.414445
2259.14	0.577341
2260.56	0.43466
2261.99	0.131816
2263.41	0.544702
2264.84	0.308339
2266.26	0.103893
2267.69	0.516722
2269.11	0.0665112
2270.53	-0.042841
2271.96	0.38463
2273.38	0.551546
2274.8	0.620865
2276.23	0.429708
2277.65	0.0267334
2279.07	0.503936
2280.49	0.622586
2281.91	0.284473
2283.34	0.109266
2284.76	0.0319099
2286.18	0.166902
2287.6	0.612517
2289.02	0.45449
2290.44	0.296714
2291.86	0.122713
2293.28	0.161281
2294.7	0.24894
2296.12	0.238384
2297.54	0.227767
2298.96	0.28271
2300.37	0.288694
2301.79	0.0653696
2303.21	-0.190741
2304.63	-0.118691
2306.04	0.166871
2307.46	0.485273
2308.88	0.162382
2310.3	-0.506615
2311.71	0.484953
2313.13	0.193682
2314.54	0.0836258
2315.96	0.385791
2317.37	0.80428
2318.79	0.0862188
2320.2	0.307289
2321.62	0.511083
2323.03	0.15213
2324.45	0.550196
2325.86	0.319084
2327.27	0.663774
2328.69	0.875509
2330.1	0.82363
2331.51	0.278736
2332.92	-0.0343056
2334.34	-0.379328
2335.75	-0.164661
2337.16	0.526464
2338.57	0.147638
2339.98	-0.264745
2341.39	0.0122385
2342.8	0.304823
2344.21	0.170579
2345.63	0.184252
2347.04	-0.309589
2348.45	-0.377201
2349.85	0.176579
2351.26	0.075036
2352.67	0.36476
2354.08	0.0330496
2355.49	-0.200813
2356.9	0.167975
2358.3	0.243159
2359.71	0.107068
2361.12	0.198578
2362.53	0.014255
2363.93	0.10556
2365.34	-0.078423
2366.75	0.15834
2368.15	-0.105354
2369.56	0.37436
2370.97	0.354812
2372.37	0.449283
2373.77	-0.147837
2375.18	0.173395
2376.59	-0.278258
2377.99	0.4274
2379.39	-0.122592
2380.8	-0.0309901
2382.2	0.107287
2383.6	-0.332131
2385.01	0.365017
2386.41	0.301928
2387.81	0.239794
2389.21	-0.195824
2390.62	0.32627
2392.02	0.195924
2393.42	-0.219766
2394.82	0.319932
2396.22	0.319283
2397.62	0.335104
2399.02	0.0972161
2400.42	0.272912
2401.82	0.258226
2403.22	0.195943
2404.62	0.371523
2406.02	0.117649
2407.42	-0.121015
2408.82	0.496257
2410.22	-0.123805
2411.62	0.144166
2413.01	-0.284204
2414.41	0.492045
2415.81	0.287863
2417.21	0.116565
2418.6	0.151887
2420	0.0766897
2421.4	0.0330486
2422.79	-0.232718
2424.19	-0.261126
2425.59	0.0591211
2426.98	0.142167
2428.38	0.194315
2429.77	0.247339
2431.17	-0.20671
2432.56	0.370813
2433.95	-0.0839205
2435.35	0.0955129
2436.74	0.0353808
2438.14	0.0692282
2439.53	0.0701509
2440.92	0.181416
2442.31	0.0857482
2443.71	-0.0577111
2445.1	0.671162
2446.49	0.099195
2447.88	0.272438
2449.27	-0.140584
2450.67	-0.125551
2452.06	-0.110079
2453.45	0.0959249
2454.84	-0.0138183
2456.23	0.0827231
2457.62	-0.105188
2459.01	0.212926
2460.4	-0.11793
2461.79	0.515091
2463.18	0.0406308
2464.57	-0.0232286
2465.95	-0.118891
2467.34	-0.325055
2468.73	-0.0261807
2470.12	-0.027401
2471.5	0.207421
2472.89	-0.0312295
2474.28	0.23351
2475.67	0.151209
2477.05	-0.0256076
2478.44	-0.217894
2479.82	-0.237124
2481.21	0.27693
2482.6	-0.588621
2483.98	0.0496802
2485.37	0.123045
2486.75	-0.164074
2488.13	0.110267
2489.52	0.00923443
2490.9	-0.122806
2492.29	0.181173
2493.67	0.299057
2495.05	0.402396
2496.44	0.243209
2497.82	0.487755
2499.2	-0.506059
2500.58	-0.276835
2501.97	-0.187708
2503.35	0.178363
2504.73	0.512066
2506.11	0.0278468
2507.49	0.129325
2508.87	0.015449
2510.25	-0.051743
2511.63	0.0505242
2513.01	0.0919623
2514.39	0.0115566
2515.77	0.0238681
2517.15	-0.131423
2518.53	-0.224916
2519.91	-0.195914
2521.29	0.214655
2522.67	0.135735
2524.05	0.132432
2525.42	-0.404917
2526.8	0.109089
2528.18	-0.244688
2529.55	0.0720191
2530.93	0.298559
2532.31	0.161787
2533.69	-0.0344844
2535.06	-0.0933681
2536.44	-0.0155444
2537.81	0.00093174
2539.19	0.0773206
2540.56	0.168118
2541.94	0.212986
2543.31	0.182199
2544.69	0.349377
2546.06	-0.0284281
2547.44	-0.223136
2548.81	0.204858
2550.18	0.284075
2551.56	-0.153098
2552.93	-0.0902953
2554.3	0.0323114
2555.67	0.138912
2557.04	-0.164562
2558.42	0.229521
2559.79	0.365911
2561.16	0.336005
2562.53	0.170297
2563.9	0.444599
2565.27	0.158593
2566.64	0.175886
2568.01	0.132643
2569.38	-0.00153732
2570.75	0.409914
2572.12	0.199976
2573.49	-0.267608
2574.86	0.295683
2576.23	0.116201
2577.6	-0.0785389
2578.97	-0.106705
2580.33	-0.0138683
2581.7	-0.0730176
2583.07	0.504292
2584.44	-0.131513
2585.8	0.172574
2587.17	0.158409
2588.54	0.023169
2589.9	0.206293
2591.27	0.161979
2592.64	-0.231225
2594	0.37482
2595.37	-0.125865
2596.73	-0.00645208
2598.1	0.127271
2599.46	0.0790715
2600.83	0.0461173
2602.19	0.0589418
2603.55	0.389346
2604.92	0.31257
2606.28	0.100274
2607.64	0.02356
2609.01	0.187322
2610.37	-0.011662
2611.73	0.300189
2613.09	0.0089922
2614.46	0.0631509
2615.82	0.176988
2617.18	0.125895
2618.54	-0.0443816
2619.9	0.0257335
2621.26	-0.142856
2622.62	-0.295808
2623.98	0.119071
2625.34	0.0558329
2626.7	-0.350516
2628.06	0.0331964
2629.42	0.430956
2630.78	0.277414
2632.14	0.0645466
2633.5	-0.0440478
2634.86	-0.0337553
2636.21	0.065474
2637.57	-0.2652
2638.93	0.0117569
2640.29	-0.111048
2641.64	0.254411
2643	0.38322
2644.36	-0.167089
2645.71	0.256968
2647.07	0.296775
2648.43	0.026577
2649.78	0.00630283
2651.14	-0.205653
2652.49	-0.226534
2653.85	0.324979
2655.2	0.260479
2656.56	0.167784
2657.91	-0.17257
2659.26	-0.189924
2660.62	0.100149
2661.97	0.462885
2663.32	0.108993
2664.68	0.207303
2666.03	0.348547
2667.38	-0.268692
2668.74	0.134291
2670.09	0.17312
2671.44	-0.0639014
2672.79	0.324745
2674.14	0.132611
2675.49	-0.276529
2676.84	0.708004
2678.19	-0.0625176
2679.54	0.0671287
2680.89	-0.237304
2682.24	-0.0332584
2683.59	-0.234167
2684.94	-0.0717292
2686.29	-0.0683904
2687.64	0.0364294
2688.99	-0.179101
2690.34	-0.0476761
2691.69	-0.0920272
2693.03	0.355608
2694.38	0.13491
2695.73	0.0736938
2697.08	-0.146276
2698.42	0.0404882
2699.77	0.0838399
2701.12	0.389378
2702.46	-0.158198
2703.81	-0.0966411
2705.15	0.356851
2706.5	0.477231
2707.85	0.408837
2709.19	0.427119
2710.54	0.328883
2711.88	0.5354
2713.22	0.625661
2714.57	-0.0108585
2715.91	-0.00805998
2717.26	0.183688
2718.6	0.200747
2719.94	0.188384
2721.29	0.0591874
2722.63	0.220633
2723.97	0.148789
2725.31	0.0765581
2726.66	0.265985
2728	0.571533
2729.34	0.192844
2730.68	0.483432
2732.02	0.0610366
2733.36	0.671648
2734.7	0.0750136
2736.04	0.0895267
2737.38	0.293231
2738.72	0.453267
2740.06	-0.0849566
2741.4	0.525197
2742.74	0.189638
2744.08	-0.102775
2745.42	0.461596
2746.76	0.124791
2748.09	-0.0957737
2749.43	0.496391
2750.77	0.348586
2752.11	0.0126553
2753.45	0.430796
2754.78	0.298271
2756.12	-0.0368204
2757.46	0.395846
2758.79	0.104717
2760.13	0.103522
2761.46	-0.57738
2762.8	0.0879459
2764.14	0.00107527
2765.47	-0.129197
2766.8	0.449053
2768.14	0.447723
2769.47	0.387377
2770.81	0.239049
2772.14	0.104108
2773.48	0.271473
2774.81	0.0632191
2776.14	0.114563
2777.48	0.353219
2778.81	-0.0695004
2780.14	-0.0600309
2781.47	0.308724
2782.8	-0.313155
2784.14	0.184386
2785.47	0.165293
2786.8	-0.0684547
2788.13	0.0420661
2789.46	0.0816188
2790.79	-0.0067873
2792.12	-0.16594
2793.45	-0.181659
2794.78	0.0170517
2796.11	0.129653
2797.44	0.0417361
2798.77	0.0247812
2800.1	0.00746584
2801.43	0.0612569
2802.76	-0.327172
2804.09	0.296376
2805.41	0.548541
2806.74	-0.0826283
2808.07	0.282122
2809.4	0.120104
2810.72	0.100369
2812.05	-0.202629
2813.38	-0.0220561
2814.71	0.117075
2816.03	0.441683
2817.36	-0.309947
2818.68	-0.30982
2820.01	0.441526
2821.33	-0.182332
2822.66	0.610459
2823.98	0.509809
2825.31	0.635514
2826.63	0.916969
2827.96	0.490888
2829.28	0.68836
2830.6	0.744687
2831.93	0.716289
2833.25	0.31982
2834.57	0.560046
2835.9	0.88469
2837.22	1.25117
2838.54	1.48975
2839.86	1.68557
2841.18	2.0652
2842.5	2.31787
2843.83	2.61356
2845.15	3.06546
2846.47	2.92449
2847.79	3.27859
2849.11	2.7706
2850.43	3.61914
2851.75	3.93003
2853.07	3.34992
2854.39	3.91409
2855.71	3.7432
2857.03	3.78425
2858.35	4.06547
2859.66	3.96529
2860.98	3.73787
2862.3	4.45604
2863.62	4.35485
2864.94	4.84603
2866.25	5.08301
2867.57	5.08043
2868.89	5.1207
2870.2	5.21786
2871.52	5.58302
2872.84	5.53904
2874.15	5.66325
2875.47	5.94103
2876.78	5.59775
2878.1	6.11215
2879.41	6.48499
2880.73	6.12692
2882.04	6.10742
2883.36	6.34207
2884.67	6.3953
2885.99	6.29487
2887.3	6.39109
2888.61	6.51477
2889.93	6.09033
2891.24	6.95515
2892.55	6.6972
2893.86	6.20113
2895.18	6.61612
2896.49	7.17179
2897.8	6.90288
2899.11	6.64942
2900.42	7.16648
2901.73	7.19447
2903.05	7.40459
2904.36	7.09734
2905.67	7.39193
2906.98	7.7292
2908.29	7.82977
2909.6	8.29526
2910.91	7.81008
2912.21	7.68863
2913.52	8.09819
2914.83	8.32402
2916.14	8.67358
2917.45	9.10491
2918.76	9.07293
2920.07	8.88691
2921.37	9.41496
2922.68	9.38526
2923.99	9.90259
2925.29	9.47097
2926.6	10.1166
2927.91	9.86758
2929.22	10.2472
2930.52	10.0109
2931.83	10.1235
2933.13	9.95616
2934.44	9.69098
2935.74	9.91514
2937.05	10.1675
2938.35	9.88898
2939.66	8.88429
2940.96	9.17983
2942.26	9.56035
2943.57	9.09001
2944.87	8.80299
2946.18	7.9719
2947.48	7.9944
2948.78	7.86268
2950.08	7.09945
2951.39	7.8181
2952.69	7.21823
2953.99	7.41479
2955.29	7.6108
2956.59	6.85608
2957.9	7.40556
2959.2	6.64247
2960.5	6.98876
2961.8	6.34268
2963.1	6.32793
2964.4	6.42485
2965.7	6.53428
2967	5.99536
2968.3	5.56694
2969.6	5.953
2970.9	5.29828
2972.19	5.48771
2973.49	5.01623
2974.79	4.69934
2976.09	5.32497
2977.39	4.90734
2978.68	4.60043
2979.98	4.60138
2981.28	4.038
2982.58	4.23397
2983.87	4.13489
2985.17	3.60139
2986.47	3.56159
2987.76	3.66389
2989.06	3.45814
2990.35	3.1543
2991.65	2.69534
2992.94	2.65698
2994.24	2.43471
2995.53	2.26763
2996.83	2.38074
2998.12	1.77786
2999.42	2.24182
3000.71	2.08899
3002	1.5304
3003.3	1.21079
3004.59	1.57792
3005.88	1.56649
3007.18	1.21855
3008.47	1.24793
3009.76	0.968843
3011.05	0.605639
3012.34	1.23388
3013.64	1.01018
3014.93	0.689656
3016.22	0.718503
3017.51	0.984699
3018.8	0.221427
3020.09	0.669011
3021.38	0.643166
3022.67	0.561066
3023.96	0.755788
3025.25	0.311747
3026.54	0.214649
3027.83	0.187359
3029.12	0.575877
3030.41	0.744144
3031.69	0.485515
3032.98	0.228097
3034.27	0.371399
3035.56	0.26587
3036.84	0.641902
3038.13	0.382133
3039.42	0.327641
3040.71	0.326905
3041.99	0.311668
3043.28	0.364985
3044.57	0.501073
3045.85	0.392241
3047.14	0.0123754
3048.42	0.372343
3049.71	0.174328
3050.99	0.346268
3052.28	0.341572
3053.56	0.13228
3054.85	0.427301
3056.13	0.612217
3057.41	0.482512
3058.7	0.611127
3059.98	0.303684
3061.26	0.650138
3062.55	0.357881
3063.83	0.32545
3065.11	0.212864
3066.39	0.16951
3067.68	0.684529
3068.96	0.220982
3070.24	0.246778
3071.52	0.312696
3072.8	0.160034
3074.08	0.346287
3075.36	0.151181
3076.65	0.458515
3077.93	0.290858
3079.21	-0.0113492
3080.49	-0.1086
3081.77	-0.367273
3083.04	0.0941048
3084.32	-0.0407591
3085.6	-0.311248
3086.88	0.110111
3088.16	0.300242
3089.44	-0.107344
3090.72	0.0954943
3091.99	0.0946975
3093.27	0.229729
3094.55	0.134488
3095.83	0.364991
3097.1	0.3651
3098.38	0.080606
3099.66	0.0400963
3100.93	0.0944281
3102.21	-0.149073
3103.49	0.555551
3104.76	-0.133807
3106.04	-0.213237
3107.31	0.114128
3108.59	0.266496
3109.86	0.0950103
3111.14	0.39823
3112.41	0.201214
3113.69	0.478755
3114.96	0.404092
3116.23	0.356196
3117.51	0.321185
3118.78	0.44809
3120.05	0.248625
3121.33	0.211246
3122.6	0.376764
3123.87	0.460758
3125.14	0.395996
3126.41	0.142274
3127.69	0.308701
3128.96	0.489065
3130.23	0.520963
3131.5	0.296227
3132.77	0.787759
3134.04	0.562832
3135.31	0.702229
3136.58	0.422857
3137.85	0.642343
3139.12	0.65921
3140.39	0.339489
3141.66	0.450825
3142.93	0.374205
3144.2	0.808353
3145.47	0.558303
3146.74	0.738273
3148	0.556926
3149.27	0.711154
