200.523	-0.0209398
202.339	0.00836086
204.154	0.0382357
205.967	0.141573
207.781	0.00165367
209.596	0.565845
211.409	0.642433
213.222	-0.156301
215.034	0.0150194
216.848	0.0157185
218.659	0.258371
220.47	0.0653419
222.281	0.0666018
224.091	-0.0283318
225.903	0.0945673
227.713	0.362071
229.522	-0.216341
231.331	0.484187
233.14	0.0256538
234.948	0.315107
236.756	-0.358963
238.566	0.125672
240.373	-0.207378
242.18	0.570238
243.986	0.143204
245.792	-0.0190639
247.598	-0.448613
249.403	-0.252959
251.208	-0.084239
253.013	0.443905
254.818	0.3427
256.624	-0.0241175
258.427	-0.269595
260.231	0.23311
262.034	-0.178313
263.836	0.0378113
265.638	0.351053
267.44	-0.0585146
269.242	0.109818
271.043	0.614853
272.844	0.708893
274.645	0.415726
276.445	0.000499725
278.245	0.692215
280.044	0.273482
281.843	0.334677
283.642	0.177573
285.44	0.379743
287.238	0.268698
289.036	-0.153947
290.833	0.4547
292.63	0.51282
294.425	-0.0259056
296.221	0.680278
298.017	0.502417
299.813	-0.0334034
301.608	0.00402355
303.403	0.350945
305.198	0.79181
306.992	0.539593
308.786	0.120486
310.579	0.202507
312.371	0.309163
314.163	0.726639
315.956	0.550299
317.748	0.23251
319.54	0.797232
321.331	0.695977
323.122	0.738299
324.911	0.184373
326.701	0.680376
328.491	0.603262
330.281	0.358006
332.071	0.541879
333.857	0.221812
335.646	0.474003
337.434	0.724112
339.222	0.732944
341.008	-0.0967083
342.795	0.340446
344.582	-0.154732
346.369	0.521143
348.153	1.07772
349.939	0.775007
351.724	0.472367
353.51	0.503341
355.292	0.604836
357.077	1.0388
358.861	0.49401
360.643	0.234558
362.426	0.498111
364.21	0.30876
365.99	0.451608
367.773	0.0950222
369.555	0.615593
371.335	0.471068
373.116	0.586408
374.897	0.346629
376.676	0.272628
378.456	0.741507
380.236	-0.0618286
382.014	0.572933
383.793	0.666862
385.57	0.221121
387.349	0.129279
389.127	0.296803
390.903	0.230184
392.681	0.140762
394.456	0.00485134
396.233	-0.0133667
398.007	-0.360366
399.784	0.537252
401.56	0.870798
403.333	0.87489
405.108	0.502498
406.881	0.552174
408.656	0.6717
410.428	-0.382776
412.202	0.135535
413.973	0.583614
415.746	-0.0705566
417.517	0.120645
419.29	-0.0865431
421.06	0.574805
422.831	0.837045
424.601	0.629148
426.37	0.138666
428.141	0.140451
429.909	-0.0224981
431.679	0.307431
433.447	0.496765
435.216	-0.275861
436.983	0.453522
438.75	0.0087986
440.519	0.126071
442.285	0.0773325
444.052	-0.113881
445.818	-0.142438
447.583	-0.218766
449.349	0.219065
451.114	0.39922
452.878	0.626036
454.643	-0.360193
456.407	0.0301628
458.169	-0.0692701
459.934	0.552856
461.696	0.0818014
463.458	-0.317615
465.222	0.02878
466.983	0.609901
468.744	-0.0847368
470.507	0.0355663
472.267	-0.169282
474.027	0.416617
475.787	0.186278
477.548	0.233481
479.307	0.0694494
481.065	0.626659
482.823	0.298913
484.583	1.06693
486.341	0.369325
488.098	0.442295
489.855	0.330598
491.612	0.102953
493.37	0.109158
495.126	0.302657
496.881	-0.112192
498.636	0.315478
500.391	0.649725
502.148	0.655377
503.902	0.331384
505.656	0.0764513
507.409	-0.132917
509.162	0.479617
510.915	0.267537
512.668	0.195206
514.42	0.639227
516.174	0.846635
517.925	0.206224
519.676	0.411674
521.427	-0.347034
523.178	-0.0251293
524.928	0.0850334
526.678	0.101244
528.427	0.445718
530.176	-0.592846
531.925	-0.225366
533.673	0.398483
535.422	0.178437
537.169	-0.159313
538.917	0.412855
540.664	0.236559
542.411	0.153147
544.157	0.418563
545.903	0.28834
547.649	0.135396
549.395	0.19167
551.14	1.0353
552.884	0.674522
554.629	0.176095
556.373	0.440662
558.117	0.290014
559.86	0.0940466
561.603	0.060071
563.346	-0.134327
565.089	0.154766
566.831	0.00764084
568.573	-0.115624
570.314	-0.21488
572.053	0.0542068
573.794	-0.202933
575.534	0.0691147
577.274	0.457495
579.014	0.25051
580.754	0.0670176
582.493	0.228148
584.23	0.503925
585.968	0.227049
587.706	0.155947
589.444	0.152797
591.181	-0.173252
592.919	0.604638
594.653	-0.297116
596.39	-0.0254316
598.126	0.361281
599.862	-0.241577
601.595	0.0520964
603.33	0.0915947
605.065	-0.12307
606.8	0.0289888
608.532	0.0883665
610.266	-0.150765
611.999	-0.274491
613.732	-0.122266
615.463	0.557577
617.196	0.0686684
618.928	0.0606136
620.66	1.01299
622.389	0.018734
624.12	-0.312018
625.851	0.180081
627.58	-0.172127
629.31	0.207991
631.04	0.339074
632.767	-0.212545
634.497	0.12673
636.223	-0.492909
637.952	-0.178144
639.68	0.134223
641.406	0.238455
643.134	0.477109
644.861	-0.0143061
646.586	-0.0950317
648.312	0.826191
650.037	-0.27277
651.762	0.131634
653.486	0.471505
655.211	-0.299822
656.936	0.227402
658.659	0.00431538
660.383	0.305236
662.105	0.0800219
663.829	0.606625
665.55	0.537121
667.273	-0.0829802
668.994	-0.0406399
670.716	0.45995
672.436	0.253204
674.158	0.48357
675.877	-0.567371
677.598	-0.265509
679.317	0.151936
681.035	0.569341
682.755	0.479663
684.473	0.73325
686.192	0.432548
687.909	-0.0539694
689.628	0.61019
691.344	0.421487
693.06	0.646857
694.778	0.710287
696.493	0.841887
698.211	0.557946
699.925	0.894366
701.64	1.04541
703.356	0.115193
705.07	0.77032
706.783	0.919151
708.498	0.998569
710.211	1.10044
711.924	0.606613
713.638	0.936761
715.35	2.27163
717.061	1.73195
718.774	0.166866
720.485	0.314021
722.196	0.779878
723.906	0.994737
725.618	0.504424
727.328	0.559826
729.037	1.25012
730.746	1.30396
732.456	0.383524
734.165	0.890103
735.873	0.582095
737.58	1.08791
739.289	0.285006
740.997	0.408537
742.703	0.915906
744.41	0.185715
746.116	1.21273
747.823	1.40797
749.529	1.08711
751.234	0.76756
752.938	0.989044
754.643	1.34688
756.347	0.986174
758.051	1.1445
759.756	0.876293
761.459	1.33026
763.162	1.10848
764.865	1.04419
766.567	1.04656
768.269	0.708175
769.97	1.20427
771.671	1.13334
773.372	0.880227
775.073	0.988547
776.773	1.05216
778.473	1.20742
780.174	1.2963
781.874	1.09214
783.573	1.99693
785.271	1.40708
786.97	0.792248
788.668	1.32899
790.365	0.776602
792.063	1.28482
793.76	1.04561
795.456	1.07733
797.153	1.38029
798.847	1.07627
800.543	1.13441
802.238	1.14879
803.933	1.16376
805.628	1.08866
807.322	1.19265
809.017	1.45265
810.71	0.791188
812.404	1.31831
814.097	1.14955
815.79	1.31665
817.483	1.08083
819.173	1.29246
820.865	0.878668
822.556	1.13525
824.248	1.59286
825.939	0.78112
827.629	1.6426
829.318	1.70449
831.008	1.88064
832.697	1.65856
834.387	1.81725
836.076	1.17408
837.765	0.820074
839.451	1.31318
841.139	1.24684
842.827	0.95583
844.514	0.999496
846.2	1.06617
847.886	1.15686
849.573	1.2275
851.259	1.30052
852.943	1.06161
854.629	1.06988
856.314	1.25769
857.997	0.81527
859.682	0.933179
861.366	0.801955
863.05	0.939494
864.732	1.12109
866.415	0.941274
868.098	1.00883
869.779	1.12113
871.461	0.89481
873.141	0.307279
874.823	1.2313
876.505	0.485634
878.184	0.890858
879.865	0.867208
881.545	0.617469
883.223	0.796003
884.903	0.657516
886.581	1.0595
888.26	0.647616
889.937	0.212146
891.616	0.632275
893.294	1.41097
894.97	0.724821
896.648	0.848176
898.323	0.90303
900	1.06905
901.675	1.23397
903.351	0.681948
905.026	0.913311
906.701	0.653278
908.375	0.728854
910.05	0.4042
911.723	1.32677
913.398	0.781359
915.07	0.70358
916.742	1.04745
918.415	0.703597
920.087	1.11329
921.76	0.173384
923.43	0.672759
925.103	0.421826
926.773	0.879306
928.443	-0.0967197
930.114	1.20167
931.783	0.249751
933.454	0.246927
935.123	0.729515
936.791	0.528678
938.461	0.37274
940.128	0.50458
941.796	0.394847
943.464	0.638743
945.131	0.750172
946.797	0.882672
948.465	0.881063
950.131	0.348074
951.797	0.454122
953.462	0.295527
955.128	0.60144
956.793	0.799524
958.457	0.382938
960.121	0.785068
961.786	-0.136269
963.45	0.709332
965.113	-0.0380068
966.775	0.583483
968.44	0.605321
970.102	0.69167
971.763	0.68876
973.425	0.575715
975.086	0.0438318
976.748	0.840423
978.409	0.444074
980.069	0.402122
981.729	0.359773
983.388	0.781105
985.048	0.757954
986.708	0.42307
988.367	0.13107
990.025	0.192067
991.683	0.650239
993.341	0.533484
994.998	0.218284
996.655	0.455068
998.312	0.228533
999.969	1.03771
1001.62	0.876574
1003.28	0.275131
1004.94	0.377932
1006.59	0.63429
1008.25	-0.141658
1009.9	0.33453
1011.56	0.569239
1013.21	0.56298
1014.86	0.294242
1016.52	-0.0395164
1018.17	0.0651073
1019.82	0.498378
1021.48	0.0358553
1023.13	-0.0538816
1024.78	-0.426889
1026.43	-0.231191
1028.08	0.335902
1029.73	0.443498
1031.38	0.331554
1033.03	-0.218312
1034.68	0.343673
1036.33	0.729307
1037.98	0.220481
1039.63	-0.113467
1041.28	0.358424
1042.93	0.417829
1044.57	0.0441895
1046.22	0.302362
1047.87	0.388332
1049.52	-0.28439
1051.16	0.347044
1052.81	0.371084
1054.45	0.351983
1056.1	0.680617
1057.75	0.422159
1059.39	0.0979347
1061.04	0.0122623
1062.68	1.36105
1064.32	0.0996819
1065.97	-0.162275
1067.61	0.0530949
1069.25	-0.101835
1070.9	0.0468321
1072.54	0.434028
1074.18	0.452478
1075.82	0.124788
1077.47	0.405622
1079.11	-0.0498142
1080.75	0.601326
1082.39	0.189881
1084.03	0.0161972
1085.67	0.491461
1087.31	0.206229
1088.95	1.08873
1090.59	0.583644
1092.22	0.0999737
1093.86	-0.0593119
1095.5	0.256513
1097.14	0.701814
1098.78	0.544544
1100.41	0.00158691
1102.05	0.0202599
1103.69	0.685801
1105.32	0.212257
1106.96	-0.0456295
1108.59	0.384409
1110.23	0.232801
1111.86	-0.135024
1113.5	0.204968
1115.13	0.779613
1116.77	0.323245
1118.4	0.189177
1120.03	0.462919
1121.67	0.22335
1123.3	-0.550115
1124.93	0.945662
1126.56	0.302423
1128.19	0.451396
1129.83	0.836133
1131.46	0.408898
1133.09	0.0888662
1134.72	0.0680103
1136.35	0.303055
1137.98	0.451593
1139.61	0.321276
1141.24	0.168822
1142.86	0.656218
1144.49	0.311472
1146.12	0.543256
1147.75	-0.0127726
1149.38	-0.0137968
1151	0.390271
1152.63	-0.632617
1154.26	0.196864
1155.88	0.38703
1157.51	0.342926
1159.14	-0.381433
1160.76	0.0435667
1162.39	0.405597
1164.01	-0.167046
1165.63	0.621485
1167.26	0.559284
1168.88	0.474826
1170.51	0.686398
1172.13	0.131229
1173.75	0.254475
1175.38	-0.387268
1177	0.201027
1178.62	0.237866
1180.24	-1.03706
1181.86	0.588379
1183.48	-0.2399
1185.1	0.348401
1186.72	0.259423
1188.34	0.0214195
1189.96	0.709496
1191.58	0.425925
1193.2	-0.131596
1194.82	-0.121455
1196.44	0.266049
1198.06	0.108979
1199.68	0.0165539
1201.29	0.720305
1202.91	0.444076
1204.53	0.504399
1206.14	0.441407
1207.76	0.504762
1209.38	0.610032
1210.99	0.318243
1212.61	0.171015
1214.22	-0.353094
1215.84	0.329243
1217.45	0.634391
1219.07	1.27049
1220.68	0.452117
1222.29	0.921742
1223.91	0.334977
1225.52	0.889218
1227.13	0.140525
1228.74	0.9657
1230.36	0.902331
1231.97	0.571391
1233.58	1.06837
1235.19	0.84307
1236.8	1.05292
1238.41	1.1604
1240.02	1.33057
1241.63	0.756371
1243.24	1.11255
1244.85	1.17844
1246.46	0.8502
1248.07	0.914171
1249.67	1.20502
1251.28	0.585281
1252.89	1.12424
1254.5	1.0019
1256.1	0.260031
1257.71	0.843081
1259.32	0.97217
1260.92	0.957232
1262.53	0.942706
1264.13	1.2389
1265.74	1.24479
1267.34	1.29143
1268.95	1.48231
1270.55	1.25755
1272.15	1.03175
1273.76	1.116
1275.36	1.03346
1276.97	0.680713
1278.57	1.32173
1280.17	1.60966
1281.77	1.15199
1283.37	1.08788
1284.97	1.64469
1286.58	0.982303
1288.18	1.45796
1289.78	1.81031
1291.38	1.21255
1292.98	1.42059
1294.58	1.64849
1296.18	1.21416
1297.78	1.33597
1299.37	1.74491
1300.97	1.61581
1302.57	2.06245
1304.17	1.99284
1305.77	1.92264
1307.36	1.40027
1308.96	2.17111
1310.55	1.34191
1312.15	1.7226
1313.75	1.06025
1315.34	1.25823
1316.94	1.68133
1318.53	1.43106
1320.13	1.62951
1321.72	1.92857
1323.32	2.06273
1324.91	1.76803
1326.5	1.77713
1328.1	1.58298
1329.69	2.2807
1331.28	1.40099
1332.87	2.04053
1334.47	1.44968
1336.06	2.33414
1337.65	2.12909
1339.24	1.68169
1340.83	1.5152
1342.42	1.82986
1344.01	2.1821
1345.6	1.16735
1347.19	1.07753
1348.78	1.53029
1350.37	1.7244
1351.96	2.10073
1353.54	1.85898
1355.13	1.15897
1356.72	1.77845
1358.31	1.698
1359.89	1.41697
1361.48	1.65407
1363.07	1.67069
1364.65	1.44773
1366.24	0.946331
1367.82	1.68087
1369.41	1.83867
1370.99	1.50026
1372.58	1.06382
1374.16	2.02131
1375.75	1.24832
1377.33	0.913122
1378.91	1.31369
1380.5	1.17602
1382.08	1.25597
1383.66	1.89142
1385.25	1.21353
1386.83	1.42984
1388.41	1.66596
1389.99	1.3666
1391.57	1.02863
1393.15	0.552711
1394.73	0.75167
1396.31	1.40641
1397.89	0.811273
1399.47	1.246
1401.05	1.20411
1402.63	1.39924
1404.21	1.05999
1405.78	0.879778
1407.36	0.996979
1408.94	1.07536
1410.52	1.03563
1412.1	1.46978
1413.67	1.13322
1415.25	0.894727
1416.82	1.06981
1418.4	1.12609
1419.98	1.10385
1421.55	1.47643
1423.13	1.20069
1424.7	1.1431
1426.28	1.26382
1427.85	0.971696
1429.42	1.5847
1431	1.33078
1432.57	1.66617
1434.14	1.1152
1435.71	1.33115
1437.29	1.5275
1438.86	1.27237
1440.43	1.27376
1442	1.11882
1443.57	1.67203
1445.14	1.63603
1446.71	1.8164
1448.28	1.56449
1449.85	1.86328
1451.42	1.84799
1452.99	1.20389
1454.56	1.16965
1456.13	1.1747
1457.7	1.86791
1459.26	1.43823
1460.83	1.28242
1462.4	1.63644
1463.97	1.10371
1465.54	1.17978
1467.1	0.803661
1468.67	1.17432
1470.23	0.99598
1471.8	1.3681
1473.36	0.936886
1474.93	1.17327
1476.49	0.9198
1478.06	0.960549
1479.62	1.25605
1481.19	1.37499
1482.75	0.886307
1484.31	1.14219
1485.88	0.672823
1487.44	1.18218
1489	0.985158
1490.56	1.13876
1492.13	1.05547
1493.69	0.65778
1495.25	1.00062
1496.81	1.08835
1498.37	0.241643
1499.93	0.932852
1501.49	0.516954
1503.05	0.6072
1504.61	0.775559
1506.17	1.05997
1507.73	0.821111
1509.28	0.485167
1510.84	0.0138702
1512.4	0.622122
1513.96	0.439415
1515.52	0.430339
1517.07	0.441018
1518.63	0.433194
1520.19	0.828158
1521.74	0.93545
1523.3	1.17597
1524.85	0.556088
1526.41	0.623184
1527.96	0.841561
1529.52	0.374368
1531.07	0.781824
1532.63	0.999043
1534.18	1.06505
1535.73	0.602309
1537.29	0.802735
1538.84	0.720261
1540.39	0.902279
1541.94	1.46078
1543.5	1.20885
1545.05	1.10764
1546.6	0.743481
1548.15	0.736381
1549.7	0.748014
1551.25	0.591288
1552.8	0.996503
1554.35	1.58878
1555.9	1.43448
1557.45	0.908805
1559	1.20642
1560.55	0.98335
1562.1	1.71321
1563.65	1.41813
1565.19	1.55268
1566.74	1.5194
1568.29	1.8405
1569.83	1.61996
1571.38	1.36169
1572.93	1.5698
1574.47	2.1698
1576.02	1.64979
1577.56	1.67134
1579.11	1.84268
1580.66	2.55618
1582.2	1.75798
1583.74	1.80091
1585.29	2.06887
1586.83	1.45879
1588.38	1.46558
1589.92	2.23937
1591.46	1.14139
1593.01	1.55895
1594.55	1.78919
1596.09	1.98215
1597.63	1.57589
1599.17	1.03872
1600.71	1.70233
1602.25	1.69135
1603.79	1.66155
1605.34	1.76255
1606.88	1.84347
1608.41	1.3962
1609.95	1.19104
1611.49	1.52867
1613.03	1.67634
1614.57	1.33464
1616.11	1.63067
1617.65	1.04584
1619.18	1.43694
1620.72	1.02386
1622.26	1.36121
1623.79	1.75537
1625.33	1.56916
1626.87	1.5694
1628.4	1.60579
1629.94	1.28551
1631.48	0.665562
1633.01	1.22268
1634.55	1.16345
1636.08	1.31028
1637.61	1.0289
1639.15	1.43809
1640.68	1.04564
1642.21	1.15589
1643.75	1.69326
1645.28	1.01933
1646.81	1.53553
1648.34	1.25173
1649.88	1.37721
1651.41	1.44779
1652.94	1.0929
1654.47	0.961816
1656	1.86932
1657.53	0.904783
1659.06	1.64416
1660.59	1.53008
1662.12	1.32225
1663.65	1.00275
1665.18	1.20039
1666.71	1.37961
1668.24	1.26454
1669.76	1.09572
1671.29	1.55487
1672.82	0.928018
1674.35	0.743862
1675.87	0.817317
1677.4	0.63235
1678.93	1.25596
1680.45	0.204907
1681.98	0.881583
1683.5	0.620659
1685.03	0.451892
1686.55	0.558733
1688.08	0.720828
1689.6	0.260283
1691.13	0.715874
1692.65	0.182878
1694.17	0.363702
1695.7	0.690434
1697.22	0.121294
1698.74	0.045537
1700.27	0.480482
1701.79	0.276098
1703.31	0.399518
1704.83	0.394794
1706.35	0.298697
1707.87	0.529732
1709.39	-0.18417
1710.91	0.609446
1712.43	-0.121194
1713.95	0.381462
1715.47	0.430801
1716.99	0.0278149
1718.51	0.38441
1720.03	0.523662
1721.55	0.265918
1723.07	0.748257
1724.58	0.113844
1726.1	-0.230552
1727.62	0.164486
1729.13	-0.0157213
1730.65	0.361449
1732.17	-0.29613
1733.68	0.56719
1735.2	0.452929
1736.72	0.407641
1738.23	-0.0920525
1739.74	-0.280626
1741.26	0.105426
1742.77	-0.158446
1744.29	-0.068965
1745.8	-0.301536
1747.32	0.00471687
1748.83	0.496623
1750.34	0.119086
1751.85	-0.0140057
1753.37	-0.204072
1754.88	0.232966
1756.39	0.101702
1757.9	0.139582
1759.41	-0.121738
1760.92	0.19501
1762.44	0.0216827
1763.95	-0.151274
1765.46	-0.201054
1766.96	0.146306
1768.47	-0.265481
1769.98	-0.0222769
1771.49	0.0388851
1773	0.0360355
1774.51	0.0501823
1776.02	0.24163
1777.53	0.0103884
1779.03	-0.121799
1780.54	0.110318
1782.05	0.06145
1783.55	0.242537
1785.06	0.0773611
1786.57	0.210099
1788.07	0.0758572
1789.58	0.0755043
1791.08	-0.00891972
1792.59	0.194403
1794.09	0.0881214
1795.6	-0.1506
1797.1	-0.119431
1798.61	-0.0342169
1800.11	-0.0957241
1801.61	0.0899458
1803.12	-0.0367842
1804.62	0.0430155
1806.12	0.0543079
1807.62	0.283408
1809.12	0.15744
1810.63	-0.0894022
1812.13	0.0849037
1813.63	-0.0659666
1815.13	0.0568342
1816.63	-0.0890732
1818.13	0.0946198
1819.63	0.318023
1821.13	0.0984001
1822.63	0.421854
1824.13	-0.0187225
1825.63	0.0559578
1827.13	0.115343
1828.62	-0.0702229
1830.12	0.0938168
1831.62	-0.136311
1833.12	0.23497
1834.61	0.268883
1836.11	0.118779
1837.61	0.063138
1839.1	0.114323
1840.6	-0.32725
1842.09	-0.115293
1843.59	0.208606
1845.09	0.0657902
1846.58	0.249435
1848.08	0.0173836
1849.57	0.0232811
1851.06	0.299513
1852.56	0.0977354
1854.05	0.0237198
1855.54	-0.0246935
1857.04	-0.210874
1858.53	-0.0350828
1860.02	-0.115236
1861.51	0.124505
1863.01	0.00988293
1864.5	-0.0185814
1865.99	-0.0814123
1867.48	-0.00103378
1868.97	0.00914764
1870.46	0.137956
1871.95	0.234027
1873.44	-0.167197
1874.93	0.258245
1876.42	0.0240498
1877.91	0.0932398
1879.4	0.0422344
1880.89	0.00425625
1882.37	0.282827
1882.46	0.301132
1883.95	0.405101
1885.45	-0.0493441
1886.94	0.122889
1888.43	-0.210357
1889.93	-0.108145
1891.42	0.186094
1892.91	-0.213924
1894.41	0.378718
1895.9	0.207769
1897.39	-0.0146255
1898.88	0.319482
1900.37	-0.0778542
1901.86	0.201853
1903.36	0.0625057
1904.85	-0.251863
1906.34	0.267358
1907.83	-0.0128298
1909.32	0.072278
1910.81	0.158135
1912.29	-0.0501475
1913.78	0.401235
1915.27	0.158934
1916.76	0.00313473
1918.25	0.210928
1919.74	0.192945
1921.23	0.070951
1922.71	-0.25842
1924.2	0.244098
1925.69	0.124288
1927.17	-0.358124
1928.66	-0.0262814
1930.15	-0.179214
1931.63	0.290602
1933.12	-0.00275803
1934.6	-0.193653
1936.09	0.202431
1937.57	0.216599
1939.06	0.264867
1940.54	0.244238
1942.02	0.155346
1943.51	0.188229
1944.99	0.0666718
1946.47	0.16966
1947.96	0.530912
1949.44	0.133264
1950.92	0.286086
1952.4	0.0593376
1953.88	0.245068
1955.37	-0.222539
1956.85	-0.294234
1958.33	0.183942
1959.81	-0.264084
1961.29	0.231872
1962.77	0.0420008
1964.25	0.16054
1965.73	0.381293
1967.21	-0.117647
1968.69	0.0847363
1970.16	0.0128493
1971.64	0.299525
1973.12	0.0224686
1974.6	0.0358491
1976.08	0.015275
1977.55	-0.0732455
1979.03	-0.110494
1980.51	0.0564151
1981.98	0.205956
1983.46	0.0322919
1984.94	-0.260225
1986.41	0.0580783
1987.89	0.104707
1989.36	0.0668502
1990.84	-0.393461
1992.31	0.111633
1993.79	0.245159
1995.26	0.379312
1996.73	0.15901
1998.21	0.0232844
1999.68	-0.146466
2001.15	-0.265961
2002.63	0.137111
2004.1	0.20248
2005.57	0.0153103
2007.04	-0.0868568
2008.51	0.165461
2009.99	-0.0866485
2011.46	-0.0352111
2012.93	0.42023
2014.4	0.303011
2015.87	0.336588
2017.34	-0.0174813
2018.81	0.35089
2020.28	-0.0713034
2021.75	0.0106096
2023.21	-0.209436
2024.68	-0.160185
2026.15	0.309363
2027.62	0.0252471
2029.09	0.295936
2030.56	-0.220597
2032.02	0.186397
2033.49	-0.0438042
2034.96	0.246419
2036.42	0.234149
2037.89	0.238209
2039.36	0.00662947
2040.82	0.127894
2042.29	0.468116
2043.75	0.254137
2045.22	0.394149
2046.68	-0.087934
2048.14	0.238295
2049.61	-0.0421109
2051.07	0.317086
2052.54	0.354749
2054	-0.250051
2055.46	0.475921
2056.93	0.104569
2058.39	0.726969
2059.85	0.169611
2061.31	0.471744
2062.77	0.336742
2064.23	0.606606
2065.7	-0.0650935
2067.16	-0.113366
2068.62	0.141815
2070.08	0.212174
2071.54	-0.239285
2073	0.201415
2074.46	-0.048419
2075.92	0.156116
2077.38	-0.195382
2078.83	-0.143045
2080.29	0.228845
2081.75	0.212944
2083.21	-0.0896835
2084.67	0.297167
2086.12	0.195286
2087.58	0.160203
2089.04	0.225623
2090.49	0.0724235
2091.95	0.221517
2093.41	-0.0323362
2094.86	0.133144
2096.32	-0.00367308
2097.77	0.210862
2099.23	0.424539
2100.68	-0.114958
2102.14	-0.0685992
2103.59	-0.00494385
2105.05	-0.0738249
2106.5	0.192183
2107.95	0.175399
2109.41	0.475771
2110.86	0.192091
2112.31	0.157457
2113.76	0.387866
2115.21	0.366933
2116.67	0.511467
2118.12	0.356994
2119.57	0.735034
2121.02	0.235049
2122.47	0.4337
2123.92	0.451142
2125.37	0.336533
2126.82	0.52019
2128.27	0.222228
2129.72	0.602667
2131.17	0.584135
2132.62	0.61455
2134.07	0.479432
2135.51	0.6262
2136.96	0.013773
2138.41	0.609562
2139.86	0.628493
2141.31	0.334794
2142.75	0.620709
2144.2	0.791625
2145.65	0.747675
2147.09	0.289519
2148.54	0.542689
2149.98	0.613034
2151.43	0.483725
2152.87	0.535805
2154.32	0.603744
2155.76	0.621555
2157.21	0.639399
2158.65	0.442481
2160.1	0.511693
2161.54	0.632107
2162.98	0.70444
2164.43	0.910913
2165.87	0.587183
2167.31	0.578606
2168.75	0.901648
2170.2	0.890852
2171.64	0.69522
2173.08	0.481218
2174.52	0.399123
2175.96	0.383056
2177.4	0.732928
2178.84	0.917075
2180.28	0.586664
2181.72	0.755778
2183.16	0.875567
2184.6	0.57983
2186.04	0.733215
2187.48	0.60381
2188.92	0.873805
2190.36	0.428131
2191.79	0.648009
2193.23	0.600937
2194.67	0.369616
2196.11	0.636229
2197.54	0.534925
2198.98	0.432252
2200.42	0.677734
2201.85	0.0593338
2203.29	0.354837
2204.72	0.750343
2206.16	0.516539
2207.59	0.863253
2209.03	-0.0324392
2210.46	0.627934
2211.9	0.509263
2213.33	0.571912
2214.77	0.782992
2216.2	0.36701
2217.63	0.315413
2219.07	0.726648
2220.5	0.347027
2221.93	0.511654
2223.36	0.626171
2224.8	0.0972037
2226.23	0.423155
2227.66	0.369032
2229.09	0.41244
2230.52	0.38944
2231.95	0.48099
2233.39	0.245166
2234.81	0.223035
2236.25	-0.0921774
2237.67	0.214747
2239.1	0.278092
2240.53	0.604048
2241.96	0.344295
2243.39	0.0693321
2244.82	0.724413
2246.25	0.628674
2247.68	0.238046
2249.1	0.726154
2250.53	0.478652
2251.96	0.53924
2253.38	0.0460219
2254.81	0.0575771
2256.24	0.232601
2257.66	-0.158601
2259.09	0.166558
2260.51	0.153383
2261.94	0.434413
2263.36	0.489741
2264.79	0.317951
2266.21	0.226967
2267.64	0.818477
2269.06	0.254203
2270.49	0.356288
2271.91	0.295151
2273.33	0.396677
2274.76	0.579753
2276.18	0.257984
2277.6	0.31105
2279.02	0.478314
2280.44	0.254258
2281.87	0.209399
2283.29	0.392834
2284.71	0.380558
2286.13	0.401096
2287.55	0.111724
2288.97	0.034853
2290.39	0.137999
2291.81	0.486663
2293.23	0.426881
2294.65	0.383391
2296.07	0.143367
2297.49	0.099587
2298.91	0.154093
2300.33	0.0121164
2301.74	0.148987
2303.16	0.187799
2304.58	0.308849
2306	0.216469
2307.41	0.370172
2308.83	0.34273
2310.25	0.314758
2311.66	-0.0754647
2313.08	-0.0217252
2314.5	0.229867
2315.91	0.350523
2317.33	0.471955
2318.74	0.478532
2320.16	0.221045
2321.57	0.143912
2322.98	0.527289
2324.4	0.413607
2325.81	0.677461
2327.23	0.444863
2328.64	0.640303
2330.05	0.654456
2331.46	-0.269091
2332.88	0.339597
2334.29	0.306955
2335.7	0.439068
2337.11	0.143147
2338.52	0.0603337
2339.94	-0.0397916
2341.35	0.122153
2342.76	0.135741
2344.17	0.231262
2345.58	0.21214
2346.99	0.226042
2348.4	0.076263
2349.81	0.0735965
2351.22	0.119337
2352.62	0.294847
2354.03	0.485537
2355.44	0.20251
2356.85	-0.112794
2358.26	0.337016
2359.67	0.282256
2361.07	-0.178076
2362.48	0.140806
2363.89	0.313157
2365.29	-0.0973673
2366.7	0.285054
2368.11	0.021347
2369.51	0.162262
2370.92	0.271805
2372.32	0.237344
2373.73	0.0266509
2375.13	0.34767
2376.54	-0.232889
2377.94	0.135038
2379.35	0.211967
2380.75	0.255245
2382.15	-0.0555696
2383.56	0.274206
2384.96	0.0430627
2386.36	0.204236
2387.76	0.174253
2389.17	0.0416837
2390.57	-0.328592
2391.97	-0.331211
2393.37	0.0170331
2394.77	-0.334187
2396.17	0.142159
2397.58	-0.144175
2398.98	0.221578
2400.38	-0.28615
2401.78	-0.046917
2403.18	-0.157104
2404.58	0.0341473
2405.97	0.256363
2407.37	0.0492053
2408.77	0.0794573
2410.17	0.347146
2411.57	0.0760417
2412.97	0.0117159
2414.37	0.170118
2415.76	0.139719
2417.16	0.062952
2418.56	0.0661116
2419.95	-0.231311
2421.35	0.231396
2422.75	0.345427
2424.14	0.475086
2425.54	0.41465
2426.93	0.243675
2428.33	0.517238
2429.72	-0.0963202
2431.12	0.353263
2432.51	0.247809
2433.91	-0.112265
2435.3	0.0189877
2436.7	0.149082
2438.09	0.341453
2439.48	0.278491
2440.88	-0.102846
2442.27	-0.198654
2443.66	0.0862026
2445.05	-0.025866
2446.44	0.179121
2447.84	0.542284
2449.23	0.0180335
2450.62	0.3811
2452.01	0.332798
2453.4	0.237714
2454.79	0.190859
2456.18	0.492625
2457.57	0.0511971
2458.96	0.131667
2460.35	0.0376916
2461.74	0.464844
2463.13	0.179803
2464.52	-0.0107441
2465.91	-0.232985
2467.29	0.0973787
2468.68	0.127605
2470.07	-0.0631552
2471.46	0.171502
2472.85	-0.0830255
2474.23	0.134424
2475.62	0.130774
2477.01	0.315414
2478.39	0.0442472
2479.78	0.00902891
2481.16	0.224888
2482.55	0.236677
2483.93	0.0132399
2485.32	0.430733
2486.7	0.518311
2488.09	0.0117235
2489.47	0.14473
2490.86	0.168293
2492.24	-0.305252
2493.62	-0.000458241
2495.01	0.320313
2496.39	-0.241929
2497.77	0.343596
2499.15	-0.170434
2500.54	-0.00341511
2501.92	-0.00728893
2503.3	0.111574
2504.68	-0.0944886
2506.06	-0.100324
2507.45	0.416941
2508.83	0.179802
2510.21	0.173893
2511.59	0.321956
2512.97	-0.0047965
2514.35	-0.131168
2515.73	0.279071
2517.11	0.199938
2518.48	-0.245572
2519.86	0.440348
2521.24	-0.127055
2522.62	0.145179
2524	0.172311
2525.38	0.71697
2526.75	0.468622
2528.13	0.190563
2529.51	0.0810704
2530.89	-0.0421972
2532.26	0.00314569
2533.64	0.429435
2535.02	-0.161586
2536.39	0.204529
2537.77	0.190293
2539.14	0.220827
2540.52	0.159537
2541.89	-0.0234623
2543.27	-0.024065
2544.64	0.203545
2546.01	0.0832486
2547.39	0.46455
2548.76	0.194327
2550.14	-0.106226
2551.51	0.199806
2552.88	0.38371
2554.25	0.0355773
2555.63	0.293666
2557	0.0809393
2558.37	-0.0408125
2559.74	0.216691
2561.11	-0.14689
2562.49	0.172118
2563.86	-0.220663
2565.23	0.190092
2566.6	0.23737
2567.97	0.224113
2569.34	0.226024
2570.71	0.485596
2572.08	0.351135
2573.45	-0.0106492
2574.82	0.0823865
2576.18	0.0238614
2577.55	0.147219
2578.92	-0.12383
2580.29	0.13554
2581.66	0.151958
2583.02	-0.135171
2584.39	0.274909
2585.76	0.0936823
2587.13	0.261189
2588.49	-0.147078
2589.86	0.414708
2591.22	0.188342
2592.59	0.416194
2593.96	-0.114141
2595.32	0.187882
2596.69	-0.0107193
2598.05	0.0776515
2599.42	0.0446324
2600.78	-0.0336051
2602.14	0.0849743
2603.51	0.33986
2604.87	0.217788
2606.23	0.0809078
2607.6	0.109752
2608.96	0.243389
2610.32	0.149927
2611.69	0.0855837
2613.05	0.426359
2614.41	0.555485
2615.77	0.458999
2617.13	-0.0418572
2618.49	0.102749
2619.86	-0.0814552
2621.22	-0.0853233
2622.58	-0.0588574
2623.94	0.087235
2625.3	0.173415
2626.66	0.184712
2628.02	0.0168943
2629.37	0.295782
2630.73	0.231852
2632.09	0.123323
2633.45	-0.13361
2634.81	-0.0190859
2636.17	0.213876
2637.53	0.224172
2638.88	-0.194897
2640.24	0.0525999
2641.6	0.403417
2642.96	0.488052
2644.31	0.513679
2645.67	0.229408
2647.02	0.166352
2648.38	0.117554
2649.74	0.0828743
2651.09	0.121189
2652.45	0.100402
2653.8	0.431942
2655.16	0.206472
2656.51	-0.0762682
2657.86	-0.12346
2659.22	0.0788431
2660.57	0.0766015
2661.93	0.161958
2663.28	0.0422511
2664.63	-0.165552
2665.98	0.282679
2667.34	0.438314
2668.69	0.273238
2670.04	-0.138703
2671.39	0.279176
2672.75	0.1594
2674.09	0.287186
2675.45	0.168578
2676.8	0.0940928
2678.15	0.0347204
2679.5	0.15007
2680.85	0.237253
2682.2	0.412436
2683.55	-0.266848
2684.9	0.243741
2686.25	0.0876279
2687.6	0.0764818
2688.94	0.0643773
2690.29	0.181548
2691.64	0.00686979
2692.99	-0.0528984
2694.34	0.0460787
2695.68	-0.304505
2697.03	-0.0168877
2698.38	0.184654
2699.73	0.0834513
2701.07	0.114039
2702.42	0.0734863
2703.76	0.0482945
2705.11	0.0380368
2706.45	0.0423322
2707.8	0.467242
2709.15	0.122792
2710.49	0.344107
2711.83	0.202186
2713.18	-0.0707211
2714.52	0.0340743
2715.87	0.255209
2717.21	0.20003
2718.55	-0.102695
2719.9	0.438104
2721.24	0.236504
2722.58	0.543869
2723.93	0.2832
2725.27	0.298708
2726.61	0.284786
2727.95	-0.22423
2729.29	0.343529
2730.63	0.314465
2731.98	0.620001
2733.32	0.140007
2734.66	0.314816
2736	-0.19382
2737.34	0.126728
2738.68	-0.090858
2740.02	-0.17772
2741.36	0.200358
2742.7	-0.0327826
2744.03	0.140551
2745.37	0.47306
2746.71	0.122409
2748.05	0.00414181
2749.39	0.379328
2750.72	0.0292072
2752.06	0.0855184
2753.4	0.18547
2754.74	-0.105676
2756.07	-0.106844
2757.41	-0.397474
2758.75	-0.19556
2760.08	0.209198
2761.42	-0.0514407
2762.76	-0.0511618
2764.09	-0.0361381
2765.42	-0.194724
2766.76	0.138258
2768.09	0.00754166
2769.43	0.0927486
2770.76	0.00325823
2772.1	-0.000594616
2773.43	0.355443
2774.76	-0.2123
2776.1	0.37325
2777.43	0.18093
2778.76	0.0469179
2780.1	-0.215787
2781.43	0.0247779
2782.76	-0.294601
2784.09	0.218243
2785.42	-0.186892
2786.75	0.196425
2788.09	0.0643568
2789.42	0.176311
2790.75	-0.0114164
2792.08	0.144799
2793.41	0.101217
2794.74	-0.0995026
2796.07	-0.171783
2797.4	0.0697932
2798.73	0.12512
2800.06	-0.00549555
2801.39	0.206158
2802.71	-0.0815883
2804.04	0.314802
2805.37	0.154929
2806.7	-0.076416
2808.03	0.360538
2809.35	-0.0846953
2810.68	-0.0321894
2812.01	-0.149581
2813.33	0.0886617
2814.66	-0.0690956
2815.99	0.157147
2817.31	0.242551
2818.64	0.0733523
2819.96	-0.13833
2821.29	-0.166095
2822.61	-0.109352
2823.94	0.471092
2825.26	0.201081
2826.59	-0.0829248
2827.91	0.256575
2829.23	0.11512
2830.56	0.384609
2831.88	0.0880523
2833.21	0.541699
2834.53	0.188266
2835.85	0.244924
2837.17	0.386024
2838.5	0.314513
2839.82	0.0448771
2841.14	0.35513
2842.46	0.467675
2843.78	0.439379
2845.1	0.694328
2846.42	0.822599
2847.74	1.0784
2849.06	0.966777
2850.38	0.798379
2851.71	0.742667
2853.03	0.262577
2854.34	1.13886
2855.66	0.912692
2856.98	0.841977
2858.3	0.827827
2859.62	0.446495
2860.94	0.954732
2862.26	0.954315
2863.57	1.12298
2864.89	1.09381
2866.21	1.26211
2867.53	1.38823
2868.84	1.50054
2870.16	1.51447
2871.48	1.57084
2872.79	1.47196
2874.11	1.38665
2875.42	1.79356
2876.74	1.38267
2878.05	1.87213
2879.37	1.82637
2880.68	1.47168
2882	1.60969
2883.31	1.66416
2884.63	1.76149
2885.94	1.8312
2887.26	1.80272
2888.57	1.28281
2889.88	1.71649
2891.19	1.68647
2892.51	1.72607
2893.82	1.54135
2895.13	1.87516
2896.44	1.98537
2897.76	1.62057
2899.07	1.73243
2900.38	1.90084
2901.69	1.88775
2903	1.86085
2904.31	2.16976
2905.62	1.98932
2906.93	2.17298
2908.24	2.11948
2909.55	2.37443
2910.86	2.22411
2912.17	2.8576
2913.48	2.63674
2914.79	2.91878
2916.1	2.38748
2917.41	2.63891
2918.71	3.01532
2920.02	3.08363
2921.33	2.77488
2922.64	3.12426
2923.94	2.83166
2925.25	3.01523
2926.56	2.50038
2927.86	3.27167
2929.17	3.38566
2930.48	2.84217
2931.78	3.0672
2933.09	2.94255
2934.39	3.06947
2935.7	3.42007
2937	3.01612
2938.31	2.97568
2939.61	2.9075
2940.92	3.02137
2942.22	2.8005
2943.53	2.86003
2944.83	2.64101
2946.13	2.21297
2947.43	2.49862
2948.74	2.51841
2950.04	2.27137
2951.34	2.24697
2952.64	2.37518
2953.95	2.44628
2955.25	2.06908
2956.55	1.93053
2957.85	2.33934
2959.15	1.92427
2960.45	2.30939
2961.75	1.91156
2963.05	2.07496
2964.35	1.76091
2965.65	2.27421
2966.95	1.99972
2968.25	1.87862
2969.55	1.43342
2970.85	1.87399
2972.15	1.75225
2973.45	1.84179
2974.75	1.73433
2976.05	1.51371
2977.34	1.3484
2978.64	1.66052
2979.94	2.01339
2981.24	1.68949
2982.53	1.3513
2983.83	1.51973
2985.13	1.02831
2986.42	0.931727
2987.72	1.34213
2989.01	1.26152
2990.31	0.998428
2991.61	0.805219
2992.9	0.709603
2994.19	0.767596
2995.49	0.937022
2996.78	0.656425
2998.08	0.277646
2999.37	0.839181
3000.67	1.03609
3001.96	0.49044
3003.25	0.772205
3004.55	0.423505
3005.84	0.606968
3007.13	0.397845
3008.42	0.342148
3009.72	0.537482
3011.01	0.186986
3012.3	0.381158
3013.59	0.337822
3014.88	0.211212
3016.17	0.154967
3017.46	0.322128
3018.76	0.0581532
3020.05	-0.316729
3021.34	0.0312471
3022.63	0.0725393
3023.92	0.126851
3025.21	0.20815
3026.49	0.192112
3027.78	0.0103841
3029.07	0.230769
3030.36	0.272398
3031.65	-0.00245762
3032.94	0.137919
3034.23	-0.204559
3035.51	0.170176
3036.8	0.00579023
3038.09	0.129518
3039.38	-0.381578
3040.66	-0.219212
3041.95	0.271399
3043.23	-0.212637
3044.52	0.140244
3045.81	0.411506
3047.09	0.2332
3048.38	0.0843644
3049.66	0.387762
3050.95	0.119208
3052.23	0.424482
3053.52	0.279477
3054.8	0.038475
3056.09	0.424095
3057.37	0.0587173
3058.65	0.156261
3059.94	-0.141443
3061.22	0.105766
3062.5	0.489452
3063.79	0.112523
3065.07	0.144829
3066.35	0.232627
3067.63	0.402837
3068.92	0.0974555
3070.2	0.363001
3071.48	-0.052177
3072.76	-0.223485
3074.04	0.433547
3075.32	0.192418
3076.6	0.236386
3077.88	0.239859
3079.16	0.0949087
3080.44	-0.184437
3081.72	-0.0420241
3083	0.142093
3084.28	0.625336
3085.56	0.226659
3086.84	0.0174932
3088.12	-0.0158434
3089.4	-0.0497646
3090.67	-0.0569453
3091.95	0.152782
3093.23	-0.125794
3094.51	0.0977035
3095.78	0.0365829
3097.06	-0.0786967
3098.34	0.104163
3099.61	0.0428925
3100.89	0.157646
3102.17	0.0962849
3103.44	-0.181482
3104.72	0.0149899
3105.99	-0.342942
3107.27	0.00355721
3108.54	0.0260415
3109.82	0.265925
3111.09	-0.0078125
3112.37	0.0574794
3113.64	0.217998
3114.92	-0.0822954
3116.19	0.104984
3117.46	-0.115263
3118.74	0.314619
3120.01	-0.0430903
3121.28	0.0188532
3122.55	-0.109504
3123.83	0.181964
3125.1	0.175371
3126.37	0.00668907
3127.64	-0.0396962
3128.91	-0.126253
3130.19	-0.21251
3131.46	-0.0823994
3132.73	0.196127
3134	0.00136614
3135.27	0.440822
3136.54	-0.10564
3137.81	0.103164
3139.08	0.109231
3140.35	0.0881686
3141.62	0.215052
3142.89	0.16722
3144.16	0.227199
3145.42	0.247272
3146.69	0.522524
3147.96	0.181637
3149.23	0.3236
