200.523	0.413736
202.339	0.458332
204.154	0.504683
205.967	0.284531
207.781	-0.22706
209.596	0.718843
211.409	0.0104103
213.222	0.95122
215.034	0.191145
216.848	-0.181028
218.659	-0.0684824
220.47	-0.14911
222.281	0.182571
224.091	-0.307121
225.903	0.00165844
227.713	0.57567
229.522	-0.203751
231.331	-0.259431
233.14	0.166763
234.948	0.568726
236.756	0.2247
238.566	-0.357504
240.373	-0.0207205
242.18	0.656567
243.986	0.0573931
245.792	0.326134
247.598	0.80995
249.403	0.275769
251.208	0.533814
253.013	1.31865
254.818	-0.046772
256.624	0.806567
258.427	0.696087
260.231	0.033699
262.034	-0.26474
263.836	-0.103495
265.638	0.107136
267.44	0.390358
269.242	0.841774
271.043	0.616916
272.844	1.11351
274.645	0.619379
276.445	0.315736
278.245	0.00952911
280.044	0.639997
281.843	0.0392208
283.642	0.903585
285.44	0.202621
287.238	0.317829
289.036	0.264816
290.833	0.380431
292.63	-0.268444
294.425	0.59235
296.221	-0.123866
298.017	-0.121274
299.813	0.383501
301.608	0.290404
303.403	0.601913
305.198	0.0521832
306.992	-0.665325
308.786	-0.405159
310.579	-0.240014
312.371	0.521755
314.163	0.28513
315.956	-0.187245
317.748	0.557058
319.54	0.446012
321.331	0.526954
323.122	0.0126705
324.911	0.428778
326.701	0.0335798
328.491	0.521416
330.281	0.482821
332.071	0.681587
333.857	0.877965
335.646	0.640617
337.434	0.543539
339.222	1.23296
341.008	0.269541
342.795	0.596498
344.582	0.182298
346.369	0.581025
348.153	0.216201
349.939	0.114698
351.724	0.514338
353.51	0.244759
355.292	0.546257
357.077	0.178012
358.861	0.952052
360.643	1.39001
362.426	0.445766
364.21	-0.0464087
365.99	0.245111
367.773	0.345063
369.555	0.656933
371.335	0.445779
373.116	0.0684156
374.897	-0.0960159
376.676	-0.0240574
378.456	0.0718985
380.236	0.686982
382.014	0.502211
383.793	0.672162
385.57	0.326397
387.349	0.663927
389.127	0.368388
390.903	0.0976715
392.681	0.579501
394.456	0.146116
396.233	0.370693
398.007	0.0551147
399.784	0.326363
401.56	0.761361
403.333	1.07794
405.108	0.641816
406.881	0.791733
408.656	0.823306
410.428	0.619598
412.202	0.392483
413.973	0.564824
415.746	0.597241
417.517	0.654123
419.29	0.547543
421.06	0.370755
422.831	0.616033
424.601	0.132554
426.37	0.938942
428.141	0.171241
429.909	1.37465
431.679	0.0898819
433.447	0.542354
435.216	0.150303
436.983	0.0632334
438.75	0.79656
440.519	0.471744
442.285	0.402319
444.052	1.33799
445.818	0.793959
447.583	1.13845
449.349	1.22441
451.114	0.235648
452.878	1.06969
454.643	0.573136
456.407	-0.0625601
458.169	0.583304
459.934	0.506836
461.696	0.687166
463.458	0.218617
465.222	-0.130264
466.983	-0.21986
468.744	0.321459
470.507	0.470296
472.267	0.224428
474.027	0.419592
475.787	0.845415
477.548	0.639464
479.307	0.803647
481.065	0.686927
482.823	0.0347462
484.583	0.152695
486.341	0.576038
488.098	0.419822
489.855	0.87257
491.612	0.0201397
493.37	0.872746
495.126	0.511001
496.881	0.499557
498.636	0.534525
500.391	1.249
502.148	0.90755
503.902	1.03405
505.656	0.783009
507.409	0.976554
509.162	1.05046
510.915	0.792705
512.668	0.532663
514.42	1.47056
516.174	0.759459
517.925	0.470359
519.676	0.532689
521.427	-0.0404692
523.178	0.513488
524.928	0.667533
526.678	1.17323
528.427	1.23293
530.176	0.84713
531.925	0.78903
533.673	0.91709
535.422	0.996515
537.169	0.606439
538.917	0.682039
540.664	0.639235
542.411	0.0829926
544.157	0.178917
545.903	0.901876
547.649	0.695035
549.395	0.141276
551.14	0.746771
552.884	0.35658
554.629	1.39998
556.373	0.525821
558.117	0.852986
559.86	0.0743856
561.603	0.563903
563.346	0.961394
565.089	0.278849
566.831	0.562807
568.573	-0.415133
570.314	0.330297
572.053	0.434725
573.794	0.151391
575.534	0.673368
577.274	1.10606
579.014	0.921117
580.754	0.576294
582.493	-0.320269
584.23	0.023057
585.968	0.365292
587.706	0.406955
589.444	0.953126
591.181	1.0149
592.919	-0.212496
594.653	0.377516
596.39	-0.136782
598.126	0.108099
599.862	0.122407
601.595	0.41162
603.33	0.147022
605.065	0.0875082
606.8	0.164151
608.532	0.055933
610.266	0.291895
611.999	-0.022253
613.732	0.00886917
615.463	0.0179548
617.196	-0.270613
618.928	-0.284849
620.66	0.0428343
622.389	-0.0203857
624.12	0.349636
625.851	0.216608
627.58	-0.257197
629.31	0.2305
631.04	0.0594501
632.767	0.370363
634.497	0.363245
636.223	1.10895
637.952	0.414119
639.68	0.925241
641.406	0.679053
643.134	1.09064
644.861	-0.0484266
646.586	0.452831
648.312	0.546757
650.037	0.304174
651.762	0.703165
653.486	-0.0969505
655.211	0.289343
656.936	0.246764
658.659	-0.0909758
660.383	0.34583
662.105	0.00477219
663.829	0.848489
665.55	1.04951
667.273	0.35608
668.994	0.48478
670.716	0.751866
672.436	0.312405
674.158	-0.0097084
675.877	0.0601807
677.598	0.407208
679.317	0.686213
681.035	0.11375
682.755	0.182125
684.473	0.82323
686.192	1.11667
687.909	1.24681
689.628	0.200656
691.344	0.374266
693.06	0.362743
694.778	0.695654
696.493	0.359303
698.211	0.735095
699.925	0.993819
701.64	0.928684
703.356	1.55173
705.07	0.358589
706.783	0.818797
708.498	0.24579
710.211	0.223094
711.924	0.886711
713.638	1.80029
715.35	1.18093
717.061	1.24754
718.774	0.470148
720.485	1.28973
722.196	0.377519
723.906	0.991287
725.618	0.694523
727.328	1.3518
729.037	1.07694
730.746	1.25535
732.456	1.18372
734.165	1.08937
735.873	1.06309
737.58	0.992225
739.289	1.80223
740.997	1.53037
742.703	0.990377
744.41	0.993265
746.116	1.65073
747.823	1.34239
749.529	1.64343
751.234	1.29404
752.938	1.05897
754.643	0.758289
756.347	0.774568
758.051	0.635373
759.756	1.17391
761.459	1.12854
763.162	1.48998
764.865	1.80641
766.567	1.33082
768.269	0.919939
769.97	1.0711
771.671	1.35522
773.372	0.71029
775.073	1.64761
776.773	1.34209
778.473	2.30464
780.174	2.45552
781.874	2.42716
783.573	1.90108
785.271	1.48625
786.97	1.13592
788.668	2.25238
790.365	1.28225
792.063	2.02732
793.76	1.50442
795.456	2.06488
797.153	2.0397
798.847	1.97196
800.543	2.17697
802.238	2.09138
803.933	1.55704
805.628	2.2368
807.322	1.29699
809.017	2.06319
810.71	1.23347
812.404	1.72664
814.097	2.21823
815.79	1.9923
817.483	1.9009
819.173	2.61431
820.865	2.03165
822.556	2.05292
824.248	1.91927
825.939	2.27808
827.629	1.92694
829.318	1.55773
831.008	1.7496
832.697	1.78964
834.387	1.63208
836.076	1.69881
837.765	1.67604
839.451	1.67392
841.139	1.17816
842.827	1.4176
844.514	1.23193
846.2	1.96359
847.886	1.73682
849.573	2.13982
851.259	1.00196
852.943	1.07507
854.629	1.64328
856.314	1.35884
857.997	1.09474
859.682	1.45796
861.366	0.963497
863.05	1.32233
864.732	0.823284
866.415	1.0666
868.098	1.53467
869.779	1.16782
871.461	0.529704
873.141	0.725899
874.823	1.17025
876.505	1.34395
878.184	1.65316
879.865	1.87201
881.545	1.75173
883.223	1.15631
884.903	1.66547
886.581	1.02144
888.26	0.781656
889.937	0.833054
891.616	1.626
893.294	1.40256
894.97	0.705301
896.648	1.19916
898.323	0.680147
900	0.901121
901.675	1.16529
903.351	1.18187
905.026	1.39931
906.701	0.478233
908.375	-0.239062
910.05	0.783332
911.723	0.358886
913.398	0.802927
915.07	1.55748
916.742	0.868851
918.415	1.15649
920.087	1.15597
921.76	1.44382
923.43	0.517211
925.103	0.389382
926.773	1.23572
928.443	1.17889
930.114	1.27831
931.783	1.00362
933.454	0.61909
935.123	0.499626
936.791	0.535193
938.461	1.12334
940.128	0.0370188
941.796	0.29774
943.464	-0.146555
945.131	-0.0394869
946.797	0.816603
948.465	0.632711
950.131	1.39517
951.797	3.61152
953.462	4.01815
955.128	3.72167
956.793	1.40113
958.457	0.430053
960.121	0.455219
961.786	0.283741
963.45	0.067584
965.113	0.313294
966.775	0.688255
968.44	0.506248
970.102	0.896548
971.763	0.400785
973.425	0.679916
975.086	-0.0340252
976.748	-0.19263
978.409	0.181664
980.069	0.0702324
981.729	-0.0418262
983.388	1.32746
985.048	1.07798
986.708	0.626334
988.367	0.681275
990.025	1.11031
991.683	0.764469
993.341	1.03723
994.998	1.2436
996.655	1.00869
998.312	1.45751
999.969	1.83934
1001.62	1.49341
1003.28	1.38935
1004.94	0.779175
1006.59	0.499316
1008.25	-0.109308
1009.9	0.226947
1011.56	0.607242
1013.21	0.680898
1014.86	0.79885
1016.52	0.545129
1018.17	0.401828
1019.82	0.959683
1021.48	1.16885
1023.13	0.374107
1024.78	0.804897
1026.43	1.01789
1028.08	0.269484
1029.73	0.547125
1031.38	1.32518
1033.03	0.855969
1034.68	0.908424
1036.33	0.13036
1037.98	0.899008
1039.63	-0.0967388
1041.28	0.976274
1042.93	0.702119
1044.57	0.126671
1046.22	0.401479
1047.87	0.613741
1049.52	0.37229
1051.16	0.0891647
1052.81	0.328486
1054.45	0.459794
1056.1	0.721569
1057.75	0.569997
1059.39	-0.0606642
1061.04	0.351367
1062.68	1.2842
1064.32	-0.154404
1065.97	0.0580835
1067.61	-0.100511
1069.25	0.130716
1070.9	0.23056
1072.54	0.00457191
1074.18	0.755872
1075.82	-0.161989
1077.47	0.874255
1079.11	0.394135
1080.75	0.60905
1082.39	-0.433755
1084.03	0.213528
1085.67	-0.420631
1087.31	0.654529
1088.95	-0.114985
1090.59	0.390656
1092.22	0.958606
1093.86	0.488207
1095.5	0.579951
1097.14	0.888303
1098.78	0.982829
1100.41	0.283404
1102.05	0.706366
1103.69	0.765969
1105.32	0.117678
1106.96	0.115558
1108.59	-0.0375471
1110.23	0.30235
1111.86	0.123966
1113.5	-0.400249
1115.13	0.319532
1116.77	-0.313954
1118.4	-0.238938
1120.03	0.0940275
1121.67	0.470874
1123.3	0.699114
1124.93	0.265408
1126.56	0.389345
1128.19	-0.12715
1129.83	0.426606
1131.46	0.125916
1133.09	0.531155
1134.72	0.423114
1136.35	0.463764
1137.98	-0.544109
1139.61	-0.356906
1141.24	-0.427424
1142.86	0.632374
1144.49	-0.441419
1146.12	0.0856457
1147.75	0.272719
1149.38	0.20529
1151	0.500688
1152.63	-0.332676
1154.26	0.196395
1155.88	0.809718
1157.51	-0.407203
1159.14	-0.325406
1160.76	0.820799
1162.39	0.309879
1164.01	0.395833
1165.63	0.269895
1167.26	-0.579346
1168.88	0.419605
1170.51	0.267976
1172.13	-0.0988054
1173.75	0.445197
1175.38	3.36271
1177	0.0638809
1178.62	0.350218
1180.24	0.2985
1181.86	0.0155039
1183.48	0.325754
1185.1	-0.0827208
1186.72	0.141391
1188.34	-0.375636
1189.96	0.138276
1191.58	0.585152
1193.2	1.00766
1194.82	0.483061
1196.44	1.07113
1198.06	0.31913
1199.68	0.679929
1201.29	0.0406847
1202.91	0.241485
1204.53	0.779763
1206.14	0.528025
1207.76	0.925028
1209.38	0.905129
1210.99	1.13426
1212.61	0.318206
1214.22	1.08325
1215.84	-0.0508099
1217.45	0.603412
1219.07	1.40034
1220.68	0.534848
1222.29	1.20673
1223.91	0.698299
1225.52	1.91142
1227.13	1.55276
1228.74	1.11394
1230.36	1.71118
1231.97	1.35913
1233.58	1.7738
1235.19	1.44633
1236.8	2.07151
1238.41	1.78886
1240.02	2.37564
1241.63	1.84607
1243.24	1.60536
1244.85	1.69442
1246.46	2.63034
1248.07	2.50934
1249.67	1.95265
1251.28	2.53343
1252.89	2.49392
1254.5	2.0833
1256.1	2.68796
1257.71	2.0742
1259.32	1.93798
1260.92	1.86515
1262.53	2.60063
1264.13	1.96943
1265.74	2.12462
1267.34	2.54821
1268.95	2.5351
1270.55	2.14709
1272.15	2.3172
1273.76	2.73444
1275.36	2.77684
1276.97	2.79697
1278.57	2.94004
1280.17	2.81283
1281.77	2.45759
1283.37	3.13724
1284.97	2.72125
1286.58	2.67915
1288.18	2.18407
1289.78	2.72387
1291.38	2.80977
1292.98	3.39136
1294.58	3.43442
1296.18	2.85572
1297.78	3.05924
1299.37	2.57901
1300.97	3.14837
1302.57	3.24104
1304.17	3.82584
1305.77	3.50373
1307.36	3.07875
1308.96	3.76196
1310.55	3.37815
1312.15	3.71227
1313.75	3.1881
1315.34	4.2399
1316.94	3.63786
1318.53	2.79287
1320.13	3.72249
1321.72	4.11946
1323.32	3.53628
1324.91	3.82539
1326.5	3.76633
1328.1	3.72682
1329.69	3.91109
1331.28	3.57193
1332.87	4.22727
1334.47	4.48168
1336.06	3.87093
1337.65	4.77435
1339.24	4.20413
1340.83	4.43736
1342.42	4.74691
1344.01	4.38898
1345.6	3.70883
1347.19	3.89282
1348.78	4.17951
1350.37	3.5294
1351.96	3.84456
1353.54	3.62314
1355.13	2.78447
1356.72	3.16573
1358.31	3.30634
1359.89	3.60501
1361.48	3.70201
1363.07	2.7802
1364.65	3.53347
1366.24	3.40967
1367.82	2.53066
1369.41	2.94831
1370.99	2.6715
1372.58	2.95421
1374.16	2.54229
1375.75	3.06666
1377.33	2.25798
1378.91	3.27916
1380.5	2.60728
1382.08	2.68941
1383.66	2.43134
1385.25	2.60918
1386.83	2.03122
1388.41	2.62566
1389.99	1.99002
1391.57	2.38809
1393.15	1.79532
1394.73	2.53223
1396.31	2.57449
1397.89	2.31824
1399.47	2.3776
1401.05	2.23735
1402.63	2.72974
1404.21	2.29179
1405.78	2.38901
1407.36	1.91436
1408.94	2.42929
1410.52	2.11513
1412.1	2.65015
1413.67	1.58498
1415.25	1.052
1416.82	2.72695
1418.4	2.09354
1419.98	1.55988
1421.55	2.26886
1423.13	1.40508
1424.7	2.59108
1426.28	1.83041
1427.85	2.29086
1429.42	2.16039
1431	2.61895
1432.57	2.76071
1434.14	2.6648
1435.71	2.8436
1437.29	2.31486
1438.86	2.88832
1440.43	3.6794
1442	3.05696
1443.57	3.55591
1445.14	2.81733
1446.71	3.27794
1448.28	3.01157
1449.85	3.64997
1451.42	3.4635
1452.99	3.14018
1454.56	1.93211
1456.13	3.04516
1457.7	3.09492
1459.26	3.5559
1460.83	3.24652
1462.4	2.89487
1463.97	2.48185
1465.54	2.63752
1467.1	1.98712
1468.67	2.65339
1470.23	2.35889
1471.8	1.79177
1473.36	1.67767
1474.93	2.42762
1476.49	1.21732
1478.06	1.419
1479.62	1.01288
1481.19	1.93949
1482.75	1.25879
1484.31	1.89086
1485.88	2.03241
1487.44	1.62429
1489	1.66467
1490.56	2.17173
1492.13	1.57982
1493.69	1.23955
1495.25	0.487665
1496.81	1.08045
1498.37	1.47681
1499.93	0.998528
1501.49	1.47418
1503.05	1.05857
1504.61	1.76879
1506.17	0.813414
1507.73	1.17389
1509.28	0.778684
1510.84	0.691384
1512.4	1.35459
1513.96	0.822343
1515.52	1.11824
1517.07	1.26075
1518.63	1.36576
1520.19	1.72046
1521.74	0.964964
1523.3	1.10889
1524.85	1.17493
1526.41	1.29649
1527.96	1.49249
1529.52	1.53502
1531.07	1.14074
1532.63	0.900051
1534.18	1.30515
1535.73	1.71083
1537.29	1.75812
1538.84	1.50441
1540.39	2.02486
1541.94	1.88514
1543.5	1.95255
1545.05	1.4555
1546.6	2.19871
1548.15	2.43355
1549.7	2.5929
1551.25	2.28417
1552.8	2.18264
1554.35	2.66219
1555.9	1.72392
1557.45	2.58146
1559	1.98601
1560.55	2.17738
1562.1	2.83759
1563.65	2.69743
1565.19	3.28584
1566.74	3.0348
1568.29	3.1939
1569.83	3.14709
1571.38	3.64097
1572.93	3.61173
1574.47	4.04895
1576.02	3.27283
1577.56	2.73971
1579.11	3.81283
1580.66	2.96398
1582.2	3.36743
1583.74	3.69776
1585.29	3.37545
1586.83	3.5398
1588.38	3.94767
1589.92	3.92512
1591.46	4.29492
1593.01	3.33465
1594.55	4.02164
1596.09	3.95967
1597.63	4.25449
1599.17	4.17569
1600.71	4.36065
1602.25	4.02105
1603.79	4.26318
1605.34	3.35833
1606.88	3.69086
1608.41	3.28724
1609.95	3.72558
1611.49	4.04714
1613.03	3.35106
1614.57	3.25421
1616.11	3.19434
1617.65	3.37901
1619.18	3.60289
1620.72	3.07998
1622.26	3.43957
1623.79	2.415
1625.33	2.75719
1626.87	2.36815
1628.4	2.89402
1629.94	2.66928
1631.48	2.57397
1633.01	2.6276
1634.55	2.92435
1636.08	2.73698
1637.61	3.05478
1639.15	2.45982
1640.68	2.38711
1642.21	2.81648
1643.75	2.53617
1645.28	2.14268
1646.81	2.84542
1648.34	2.97069
1649.88	2.46512
1651.41	3.01946
1652.94	2.79618
1654.47	3.26084
1656	2.39169
1657.53	3.07935
1659.06	2.67252
1660.59	2.72682
1662.12	2.48283
1663.65	3.18016
1665.18	2.58264
1666.71	2.24505
1668.24	2.85016
1669.76	2.8302
1671.29	2.64677
1672.82	2.8704
1674.35	2.21069
1675.87	2.01118
1677.4	2.17866
1678.93	2.76744
1680.45	2.32441
1681.98	1.53164
1683.5	1.74932
1685.03	1.87508
1686.55	1.83617
1688.08	1.11985
1689.6	1.10098
1691.13	1.24725
1692.65	1.50329
1694.17	2.10649
1695.7	1.11834
1697.22	1.02615
1698.74	0.988359
1700.27	1.00473
1701.79	0.765003
1703.31	0.579463
1704.83	0.976123
1706.35	0.425381
1707.87	0.984074
1709.39	0.978633
1710.91	0.465219
1712.43	0.968308
1713.95	0.691762
1715.47	0.397661
1716.99	0.447596
1718.51	0.551477
1720.03	0.0230932
1721.55	0.199468
1723.07	0.44847
1724.58	0.590434
1726.1	0.896173
1727.62	0.64557
1729.13	0.342527
1730.65	0.954304
1732.17	-0.0953789
1733.68	-0.166384
1735.2	0.164246
1736.72	0.904329
1738.23	0.340431
1739.74	0.102848
1741.26	0.308207
1742.77	0.314344
1744.29	0.226568
1745.8	-0.162416
1747.32	0.501929
1748.83	0.281123
1750.34	0.21787
1751.85	-0.0412397
1753.37	0.0530806
1754.88	-0.0908518
1756.39	0.15051
1757.9	-0.246425
1759.41	-0.375866
1760.92	-0.150789
1762.44	-0.120238
1763.95	0.275605
1765.46	0.117821
1766.96	0.170775
1768.47	0.00475311
1769.98	0.0292664
1771.49	0.0591612
1773	0.20343
1774.51	-0.235567
1776.02	0.180683
1777.53	-0.184963
1779.03	0.260041
1780.54	0.0197353
1782.05	-0.310647
1783.55	0.109183
1785.06	0.114232
1786.57	0.148196
1788.07	-0.361668
1789.58	-0.00963879
1791.08	-0.230511
1792.59	-0.179499
1794.09	-0.109958
1795.6	0.158429
1797.1	0.459456
1798.61	0.0243826
1800.11	0.122368
1801.61	-0.159552
1803.12	0.0996799
1804.62	0.152862
1806.12	-0.278581
1807.62	-0.0935841
1809.12	-0.14953
1810.63	0.0760288
1812.13	-0.139717
1813.63	0.395474
1815.13	0.129254
1816.63	0.12393
1818.13	-0.0111217
1819.63	-0.0226212
1821.13	-0.0279331
1822.63	0.185946
1824.13	-0.329591
1825.63	0.195826
1827.13	0.346877
1828.62	-0.00990677
1830.12	0.389235
1831.62	0.0446453
1833.12	-0.266334
1834.61	0.0779743
1836.11	-0.115473
1837.61	0.344053
1839.1	-0.00152397
1840.6	0.10586
1842.09	0.228103
1843.59	0.0743704
1845.09	0.679662
1846.58	0.45703
1848.08	0.356778
1849.57	0.402531
1851.06	-0.150331
1852.56	0.0256844
1854.05	-0.0531101
1855.54	0.240052
1857.04	0.0680609
1858.53	-0.171176
1860.02	0.131421
1861.51	-0.14287
1863.01	0.235621
1864.5	0.143939
1865.99	-0.409367
1867.48	0.14776
1868.97	-0.209801
1870.46	0.355577
1871.95	-0.0167322
1873.44	0.494882
1874.93	-0.506794
1876.42	-0.27503
1877.91	-0.0479431
1879.4	0.147182
1880.89	0.439937
1882.37	-0.0784225
1882.46	-0.108675
1883.95	0.345523
1885.45	0.0837955
1886.94	0.535157
1888.43	0.323754
1889.93	0.112797
1891.42	0.0947046
1892.91	-0.0428276
1894.41	-0.0386581
1895.9	0.367647
1897.39	-0.389875
1898.88	-0.295446
1900.37	0.336967
1901.86	0.166861
1903.36	0.168179
1904.85	0.358603
1906.34	0.426025
1907.83	0.163334
1909.32	0.144742
1910.81	-0.288947
1912.29	0.40644
1913.78	-0.00762749
1915.27	0.480325
1916.76	0.0140905
1918.25	0.205942
1919.74	0.310383
1921.23	-0.00111675
1922.71	0.121011
1924.2	-0.0327044
1925.69	0.23068
1927.17	-0.162264
1928.66	0.397945
1930.15	0.109781
1931.63	0.582435
1933.12	0.221825
1934.6	-0.193085
1936.09	0.376173
1937.57	-0.319184
1939.06	-0.219499
1940.54	0.0530872
1942.02	0.0676441
1943.51	-0.0370855
1944.99	-0.0542765
1946.47	0.0497789
1947.96	0.325814
1949.44	-0.484681
1950.92	0.408799
1952.4	-0.369203
1953.88	-0.201245
1955.37	-0.239877
1956.85	0.0655003
1958.33	0.697554
1959.81	0.077733
1961.29	-0.0434628
1962.77	0.418515
1964.25	0.725666
1965.73	0.432438
1967.21	-0.272256
1968.69	0.528193
1970.16	-0.0236378
1971.64	-0.335952
1973.12	0.188442
1974.6	0.149347
1976.08	-0.128071
1977.55	0.361612
1979.03	0.357152
1980.51	0.352659
1981.98	0.177938
1983.46	0.376756
1984.94	-0.290879
1986.41	-0.0419664
1987.89	0.375985
1989.36	-0.357841
1990.84	0.534892
1992.31	0.497604
1993.79	0.24203
1995.26	0.207533
1996.73	-0.147286
1998.21	0.00475311
1999.68	-0.38413
2001.15	0.0364866
2002.63	0.16927
2004.1	0.234262
2005.57	0.0637236
2007.04	0.332269
2008.51	0.147315
2009.99	0.0478392
2011.46	0.0669813
2012.93	-0.11576
2014.4	0.0880537
2015.87	0.509434
2017.34	-0.0125771
2018.81	0.0698652
2020.28	-0.0837975
2021.75	0.350248
2023.21	-0.189279
2024.68	0.0780964
2026.15	0.799803
2027.62	0.248628
2029.09	0.202773
2030.56	-0.210296
2032.02	0.636349
2033.49	-0.0601349
2034.96	-0.0686035
2036.42	0.275186
2037.89	0.147937
2039.36	0.339387
2040.82	0.614845
2042.29	-0.0338316
2043.75	0.192724
2045.22	0.336559
2046.68	0.229074
2048.14	0.660949
2049.61	0.132209
2051.07	-0.145493
2052.54	-0.206205
2054	-0.20191
2055.46	0.154123
2056.93	0.288907
2058.39	-0.0830965
2059.85	0.269216
2061.31	0.386051
2062.77	0.285102
2064.23	0.774635
2065.7	-0.215432
2067.16	0.714212
2068.62	0.719138
2070.08	0.7077
2071.54	0.511162
2073	0.0786476
2074.46	0.285557
2075.92	0.71095
2077.38	0.445387
2078.83	0.381336
2080.29	0.333486
2081.75	0.587925
2083.21	0.235341
2084.67	0.403566
2086.12	0.402416
2087.58	-0.204935
2089.04	-0.156863
2090.49	0.579565
2091.95	0.291006
2093.41	0.62348
2094.86	0.351496
2096.32	0.263503
2097.77	0.0239649
2099.23	-0.0487385
2100.68	0.831422
2102.14	0.490624
2103.59	0.201532
2105.05	0.248327
2106.5	1.04774
2107.95	0.597292
2109.41	0.247646
2110.86	0.66432
2112.31	0.379013
2113.76	0.65785
2115.21	0.617833
2116.67	-0.437567
2118.12	0.319781
2119.57	0.463532
2121.02	0.559954
2122.47	1.15654
2123.92	0.511318
2125.37	0.2983
2126.82	0.996898
2128.27	0.450668
2129.72	0.631963
2131.17	0.645658
2132.62	1.23753
2134.07	1.19996
2135.51	0.717072
2136.96	1.1126
2138.41	0.6677
2139.86	1.38233
2141.31	0.925871
2142.75	0.983456
2144.2	1.12473
2145.65	0.836049
2147.09	0.910972
2148.54	1.23352
2149.98	1.38936
2151.43	1.345
2152.87	1.61402
2154.32	1.28536
2155.76	1.66842
2157.21	1.7036
2158.65	1.54098
2160.1	1.41333
2161.54	1.71893
2162.98	1.13215
2164.43	1.4759
2165.87	1.57233
2167.31	1.8682
2168.75	1.897
2170.2	1.25799
2171.64	1.99635
2173.08	1.26805
2174.52	2.30099
2175.96	1.65299
2177.4	1.68718
2178.84	1.57278
2180.28	1.32677
2181.72	1.79693
2183.16	1.63615
2184.6	1.92481
2186.04	1.79779
2187.48	1.75393
2188.92	1.80997
2190.36	1.46651
2191.79	1.53876
2193.23	1.6433
2194.67	1.66272
2196.11	1.72947
2197.54	1.54371
2198.98	0.840185
2200.42	0.80075
2201.85	0.877313
2203.29	1.23665
2204.72	0.834294
2206.16	1.03043
2207.59	1.34313
2209.03	0.810806
2210.46	1.05586
2211.9	0.720283
2213.33	1.87175
2214.77	1.50171
2216.2	0.90189
2217.63	1.44268
2219.07	1.27562
2220.5	0.285622
2221.93	0.516055
2223.36	0.844277
2224.8	1.00566
2226.23	0.588512
2227.66	0.0710974
2229.09	0.292017
2230.52	0.609813
2231.95	0.271073
2233.39	0.899191
2234.81	1.1836
2236.25	0.652214
2237.67	0.940127
2239.1	0.349203
2240.53	0.348681
2241.96	0.20381
2243.39	0.419459
2244.82	0.505177
2246.25	0.492197
2247.68	0.998993
2249.1	0.491758
2250.53	0.470753
2251.96	0.544996
2253.38	0.95939
2254.81	0.252269
2256.24	0.587237
2257.66	0.178518
2259.09	0.552582
2260.51	0.589884
2261.94	0.257264
2263.36	0.300048
2264.79	0.814662
2266.21	0.337543
2267.64	0.737323
2269.06	0.436375
2270.49	0.19922
2271.91	0.28689
2273.33	0.488334
2274.76	0.396741
2276.18	0.419432
2277.6	0.328283
2279.02	0.351293
2280.44	0.602525
2281.87	0.494882
2283.29	0.0933819
2284.71	0.246555
2286.13	0.0899487
2287.55	0.0480165
2288.97	0.169963
2290.39	0.0311089
2291.81	0.35022
2293.23	0.277277
2294.65	0.416939
2296.07	0.27834
2297.49	0.630796
2298.91	0.246407
2300.33	0.140534
2301.74	0.166114
2303.16	0.208509
2304.58	0.0870094
2306	-0.215358
2307.41	-0.041976
2308.83	0.426731
2310.25	0.286579
2311.66	0.589882
2313.08	0.202231
2314.5	-0.0534906
2315.91	-0.341407
2317.33	0.0139265
2318.74	0.106508
2320.16	0.198922
2321.57	0.653
2322.98	0.411633
2324.4	0.167056
2325.81	0.579457
2327.23	0.67584
2328.64	0.803948
2330.05	0.240303
2331.46	-0.00880241
2332.88	-0.289165
2334.29	0.0405664
2335.7	0.206007
2337.11	0.0418749
2338.52	-0.057663
2339.94	0.10429
2341.35	0.527519
2342.76	-0.133669
2344.17	0.353965
2345.58	0.0873795
2346.99	-0.0802097
2348.4	-0.100214
2349.81	-0.954976
2351.22	-0.0440283
2352.62	0.0475368
2354.03	0.31715
2355.44	0.340759
2356.85	0.380108
2358.26	-0.00358868
2359.67	0.101117
2361.07	0.254423
2362.48	0.261467
2363.89	-0.428088
2365.29	-0.177873
2366.7	0.0720367
2368.11	-0.0330048
2369.51	0.170002
2370.92	-0.0930424
2372.32	-0.0156622
2373.73	0.0791016
2375.13	0.319206
2376.54	0.204674
2377.94	-0.00763321
2379.35	0.180009
2380.75	0.0279732
2382.15	0.179017
2383.56	0.0721855
2384.96	-0.274702
2386.36	-0.332664
2387.76	-0.389375
2389.17	0.304951
2390.57	-0.00394344
2391.97	-0.0401535
2393.37	-0.58415
2394.77	0.384398
2396.17	-0.125444
2397.58	0.271822
2398.98	0.129418
2400.38	-0.012248
2401.78	0.338953
2403.18	-0.135701
2404.58	0.103865
2405.97	0.0247326
2407.37	0.103081
2408.77	0.465763
2410.17	0.00330925
2411.57	-0.28414
2412.97	0.189862
2414.37	-0.0155697
2415.76	0.572558
2417.16	0.244288
2418.56	0.598088
2419.95	0.208213
2421.35	0.546699
2422.75	0.0926952
2424.14	0.303658
2425.54	0.4038
2426.93	0.266911
2428.33	-0.217666
2429.72	0.297823
2431.12	0.0372486
2432.51	0.221148
2433.91	0.531605
2435.3	0.348311
2436.7	0.0199318
2438.09	-0.167518
2439.48	-0.356632
2440.88	0.18363
2442.27	-0.0550652
2443.66	0.404224
2445.05	0.513941
2446.44	0.0367212
2447.84	0.399665
2449.23	0.0969563
2450.62	0.285641
2452.01	0.41157
2453.4	0.253648
2454.79	0.191885
2456.18	0.415831
2457.57	0.18149
2458.96	-0.527494
2460.35	0.0123158
2461.74	-0.208043
2463.13	0.250322
2464.52	0.423163
2465.91	0.153237
2467.29	0.246474
2468.68	0.276443
2470.07	-0.0566101
2471.46	-0.106185
2472.85	0.237254
2474.23	-0.255139
2475.62	-0.0869846
2477.01	-0.155371
2478.39	0.153187
2479.78	-0.401627
2481.16	0.236353
2482.55	-0.270494
2483.93	0.365709
2485.32	-0.0482836
2486.7	0.0682745
2488.09	0.307941
2489.47	0.203095
2490.86	0.113859
2492.24	0.0255013
2493.62	-0.0612574
2495.01	-0.595947
2496.39	0.499438
2497.77	0.0919046
2499.15	0.180663
2500.54	-0.117802
2501.92	-0.0149698
2503.3	0.117291
2504.68	0.4949
2506.06	0.331532
2507.45	0.0450382
2508.83	0.266683
2510.21	0.0583858
2511.59	0.342333
2512.97	0.0902882
2514.35	-0.221437
2515.73	0.157219
2517.11	-0.0907469
2518.48	0.0904016
2519.86	0.118811
2521.24	-0.0669508
2522.62	0.128258
2524	0.0628109
2525.38	0.0879469
2526.75	0.173573
2528.13	0.107405
2529.51	-0.0180683
2530.89	-0.247726
2532.26	0.254318
2533.64	-0.214313
2535.02	0.199278
2536.39	-0.0252323
2537.77	-0.0378685
2539.14	0.373513
2540.52	0.373615
2541.89	0.0544615
2543.27	0.0696564
2544.64	0.101111
2546.01	0.0583372
2547.39	0.0930452
2548.76	0.417171
2550.14	0.665728
2551.51	0.428107
2552.88	0.113339
2554.25	-0.369704
2555.63	0.026207
2557	0.193659
2558.37	0.0727215
2559.74	-0.169087
2561.11	0.16585
2562.49	0.152988
2563.86	0.262158
2565.23	0.478012
2566.6	0.133518
2567.97	0.0922327
2569.34	0.217687
2570.71	0.343156
2572.08	0.180704
2573.45	0.215415
2574.82	0.0986691
2576.18	0.573244
2577.55	0.107756
2578.92	0.23328
2580.29	-0.0813713
2581.66	-0.108456
2583.02	0.273345
2584.39	0.169634
2585.76	0.0810347
2587.13	0.0229206
2588.49	0.268188
2589.86	0.392364
2591.22	0.00115871
2592.59	0.10946
2593.96	-0.0559902
2595.32	-0.0560904
2596.69	-0.0575409
2598.05	0.151752
2599.42	-0.25961
2600.78	0.0700407
2602.14	0.203649
2603.51	-0.09974
2604.87	-0.130499
2606.23	0.276517
2607.6	0.336031
2608.96	0.138177
2610.32	-0.392413
2611.69	-0.246652
2613.05	0.122906
2614.41	-0.00500679
2615.77	-0.283088
2617.13	-0.0506229
2618.49	0.227095
2619.86	-0.0782251
2621.22	0.0964165
2622.58	-0.102029
2623.94	0.207834
2625.3	-0.213967
2626.66	0.169769
2628.02	0.418414
2629.37	-0.033556
2630.73	0.452247
2632.09	0.3722
2633.45	0.158542
2634.81	0.0639429
2636.17	0.117772
2637.53	0.230781
2638.88	0.0623589
2640.24	0.456628
2641.6	0.318423
2642.96	0.372874
2644.31	-0.000626564
2645.67	0.113167
2647.02	0.241041
2648.38	0.353089
2649.74	-0.183671
2651.09	-0.205735
2652.45	-0.0813084
2653.8	0.321888
2655.16	0.0803385
2656.51	0.0603476
2657.86	-0.16299
2659.22	0.25881
2660.57	0.446825
2661.93	-0.0669918
2663.28	0.456046
2664.63	0.203735
2665.98	0.329998
2667.34	0.557427
2668.69	0.449418
2670.04	0.152794
2671.39	0.162655
2672.75	-0.277093
2674.09	0.0832319
2675.45	0.00849152
2676.8	0.514928
2678.15	0.021122
2679.5	0.819201
2680.85	0.284607
2682.2	-0.146835
2683.55	0.148221
2684.9	0.0385809
2686.25	0.234235
2687.6	0.400876
2688.94	0.29023
2690.29	-0.0258951
2691.64	0.308815
2692.99	0.249542
2694.34	0.0729904
2695.68	0.012289
2697.03	0.386996
2698.38	-0.062314
2699.73	0.214717
2701.07	0.17549
2702.42	0.138256
2703.76	-0.0569725
2705.11	0.386221
2706.45	0.554348
2707.8	0.272471
2709.15	0.0478964
2710.49	0.17117
2711.83	0.0327082
2713.18	0.257255
2714.52	0.0893955
2715.87	0.0958471
2717.21	0.50937
2718.55	0.36997
2719.9	0.331891
2721.24	-0.143393
2722.58	0.428539
2723.93	0.563268
2725.27	0.333527
2726.61	0.423509
2727.95	0.454844
2729.29	0.12205
2730.63	0.0656052
2731.98	0.445594
2733.32	0.127355
2734.66	0.653065
2736	0.0881262
2737.34	0.381542
2738.68	0.500404
2740.02	0.589863
2741.36	0.329719
2742.7	0.446792
2744.03	0.257684
2745.37	0.431074
2746.71	0.690883
2748.05	0.238947
2749.39	0.425867
2750.72	0.830449
2752.06	0.568176
2753.4	0.480336
2754.74	0.262403
2756.07	0.334474
2757.41	0.290882
2758.75	0.291084
2760.08	0.233906
2761.42	0.162919
2762.76	0.425395
2764.09	-0.00623131
2765.42	0.0107203
2766.76	0.316468
2768.09	0.158086
2769.43	0.562047
2770.76	-0.0768156
2772.1	0.294258
2773.43	-0.0869589
2774.76	0.367932
2776.1	0.30339
2777.43	0.181867
2778.76	0.233841
2780.1	0.415777
2781.43	0.109646
2782.76	0.205894
2784.09	-0.128306
2785.42	0.0395403
2786.75	0.135777
2788.09	-0.425942
2789.42	-0.199166
2790.75	0.0428572
2792.08	0.257155
2793.41	0.157491
2794.74	0.0293713
2796.07	0.0866566
2797.4	0.343184
2798.73	0.498839
2800.06	-0.00273323
2801.39	0.480114
2802.71	0.121005
2804.04	-0.209562
2805.37	0.300018
2806.7	0.32425
2808.03	0.00625038
2809.35	-0.539229
2810.68	0.0664454
2812.01	-0.0234032
2813.33	0.0443087
2814.66	-0.226451
2815.99	0.128466
2817.31	0.371371
2818.64	0.0906487
2819.96	0.0651007
2821.29	0.535052
2822.61	0.238795
2823.94	0.310187
2825.26	0.494384
2826.59	0.607726
2827.91	0.311099
2829.23	0.454157
2830.56	0.286381
2831.88	0.274624
2833.21	0.0504875
2834.53	0.406303
2835.85	0.959549
2837.17	0.436549
2838.5	0.917563
2839.82	1.29904
2841.14	1.28457
2842.46	1.45441
2843.78	1.25759
2845.1	1.85318
2846.42	1.30487
2847.74	1.78874
2849.06	1.96177
2850.38	2.24749
2851.71	2.41948
2853.03	2.44941
2854.34	2.69074
2855.66	2.39484
2856.98	2.52279
2858.3	2.50952
2859.62	2.90578
2860.94	2.97694
2862.26	3.24526
2863.57	3.25889
2864.89	3.42735
2866.21	3.49691
2867.53	3.2565
2868.84	3.9051
2870.16	3.63769
2871.48	4.34322
2872.79	3.97706
2874.11	4.69497
2875.42	4.94611
2876.74	4.85754
2878.05	4.10647
2879.37	4.24178
2880.68	4.39139
2882	4.55601
2883.31	4.46917
2884.63	4.69265
2885.94	5.11343
2887.26	4.67803
2888.57	4.32642
2889.88	4.88571
2891.19	4.88251
2892.51	4.94848
2893.82	5.05615
2895.13	4.60409
2896.44	5.0913
2897.76	4.47419
2899.07	5.25787
2900.38	5.13314
2901.69	4.61743
2903	5.05323
2904.31	5.44723
2905.62	5.60378
2906.93	5.95693
2908.24	6.08742
2909.55	6.61092
2910.86	6.79959
2912.17	6.7924
2913.48	6.91011
2914.79	7.01182
2916.1	7.083
2917.41	7.12384
2918.71	7.66681
2920.02	7.92937
2921.33	8.12278
2922.64	7.91252
2923.94	7.60651
2925.25	7.81939
2926.56	8.63431
2927.86	8.47081
2929.17	7.90131
2930.48	8.95266
2931.78	8.52138
2933.09	8.57896
2934.39	8.95792
2935.7	8.55432
2937	8.72396
2938.31	8.02745
2939.61	8.49117
2940.92	7.86566
2942.22	7.70246
2943.53	7.4291
2944.83	7.22743
2946.13	6.83151
2947.43	7.0098
2948.74	6.34811
2950.04	6.37048
2951.34	5.97032
2952.64	6.0856
2953.95	6.10085
2955.25	6.07346
2956.55	5.58529
2957.85	5.36574
2959.15	6.39581
2960.45	5.70759
2961.75	5.98865
2963.05	5.76626
2964.35	4.96724
2965.65	5.41548
2966.95	5.2716
2968.25	4.81641
2969.55	4.85201
2970.85	4.67642
2972.15	4.57144
2973.45	4.22761
2974.75	4.06657
2976.05	4.0595
2977.34	4.37459
2978.64	3.92698
2979.94	4.06834
2981.24	4.09512
2982.53	3.88189
2983.83	3.34583
2985.13	3.06452
2986.42	3.20685
2987.72	2.90143
2989.01	2.89243
2990.31	2.95407
2991.61	2.57938
2992.9	2.35789
2994.19	2.42981
2995.49	2.45797
2996.78	1.81113
2998.08	1.9644
2999.37	1.8232
3000.67	1.73884
3001.96	1.64124
3003.25	1.50218
3004.55	1.32129
3005.84	1.42022
3007.13	1.12629
3008.42	1.57304
3009.72	1.38881
3011.01	1.34349
3012.3	1.00437
3013.59	1.04236
3014.88	0.300098
3016.17	0.256227
3017.46	0.825873
3018.76	0.769329
3020.05	0.89372
3021.34	1.07295
3022.63	0.820211
3023.92	0.19182
3025.21	0.561747
3026.49	0.695108
3027.78	0.510445
3029.07	0.811354
3030.36	0.823556
3031.65	0.257623
3032.94	0.369935
3034.23	0.592975
3035.51	0.718583
3036.8	0.594158
3038.09	0.302214
3039.38	0.847836
3040.66	0.867686
3041.95	0.57043
3043.23	0.205256
3044.52	0.37587
3045.81	0.807856
3047.09	0.435772
3048.38	0.558702
3049.66	0.943563
3050.95	0.620751
3052.23	0.558329
3053.52	0.918895
3054.8	0.869207
3056.09	0.722618
3057.37	1.09263
3058.65	0.875217
3059.94	1.28391
3061.22	0.318084
3062.5	0.768954
3063.79	0.432569
3065.07	0.560476
3066.35	0.948441
3067.63	0.576357
3068.92	0.599016
3070.2	0.45809
3071.48	0.68322
3072.76	0.267507
3074.04	0.149392
3075.32	0.519232
3076.6	0.168377
3077.88	0.266194
3079.16	0.215931
3080.44	0.248902
3081.72	0.243097
3083	-0.0189009
3084.28	0.357582
3085.56	0.367819
3086.84	-0.0162058
3088.12	-0.0076189
3089.4	-0.122138
3090.67	-0.060895
3091.95	0.149272
3093.23	-0.332309
3094.51	0.135864
3095.78	-0.0873556
3097.06	0.150453
3098.34	0.184702
3099.61	0.272869
3100.89	0.293045
3102.17	0.123585
3103.44	0.211697
3104.72	-0.146357
3105.99	0.295009
3107.27	0.168997
3108.54	-0.0234537
3109.82	-0.0658016
3111.09	0.312723
3112.37	0.0828981
3113.64	-0.187284
3114.92	-0.200198
3116.19	-0.0917168
3117.46	0.232674
3118.74	0.0809402
3120.01	-0.16722
3121.28	0.0308561
3122.55	-0.137985
3123.83	-0.185144
3125.1	0.268811
3126.37	-0.0350876
3127.64	0.189493
3128.91	0.0628376
3130.19	-0.0769014
3131.46	-0.0272799
3132.73	-0.113076
3134	0.138304
3135.27	-0.16481
3136.54	0.287116
3137.81	0.00963116
3139.08	-0.20068
3140.35	0.463897
3141.62	-0.190655
3142.89	0.298265
3144.16	0.276672
3145.42	0.470413
3146.69	0.289259
3147.96	0.336833
3149.23	0.438538
