200.523	-0.00244713
202.339	0.0167809
204.154	0.0394077
205.967	0.063385
207.781	-0.0825615
209.596	0.329529
211.409	0.277761
213.222	0.684917
215.034	0.337673
216.848	0.280712
218.659	0.223791
220.47	0.192055
222.281	0.113379
224.091	-0.060585
225.903	0.0322456
227.713	0.583916
229.522	0.120232
231.331	-0.0785789
233.14	0.108168
234.948	0.0782394
236.756	0.508339
238.566	0.363283
240.373	-0.0428505
242.18	0.422493
243.986	0.166605
245.792	0.199856
247.598	0.423571
249.403	0.66692
251.208	0.808296
253.013	0.655205
254.818	0.523369
256.624	0.415058
258.427	0.235907
260.231	0.637819
262.034	0.464674
263.836	0.342474
265.638	0.487015
267.44	0.752626
269.242	0.270468
271.043	0.775202
272.844	0.265331
274.645	0.524532
276.445	0.202303
278.245	0.503592
280.044	0.584366
281.843	0.805876
283.642	0.590891
285.44	0.421831
287.238	0.491747
289.036	0.0580101
290.833	0.967747
292.63	0.537884
294.425	-0.0800457
296.221	-0.144962
298.017	0.700111
299.813	1.11541
301.608	1.00463
303.403	0.629772
305.198	1.11214
306.992	0.852993
308.786	0.641432
310.579	0.407263
312.371	-0.0389729
314.163	0.0179081
315.956	0.506544
317.748	0.522106
319.54	0.85009
321.331	0.75141
323.122	0.367874
324.911	0.223282
326.701	0.436918
328.491	0.292046
330.281	0.647911
332.071	-0.0264034
333.857	0.77924
335.646	0.408955
337.434	0.824303
339.222	0.589893
341.008	0.759455
342.795	-0.554539
344.582	-0.242706
346.369	0.786291
348.153	0.239988
349.939	0.0290775
351.724	-0.0384769
353.51	0.0123463
355.292	0.395285
357.077	0.155701
358.861	0.176186
360.643	0.0517807
362.426	-0.835501
364.21	-0.296068
365.99	0.288778
367.773	0.06423
369.555	0.739603
371.335	0.0856953
373.116	0.40197
374.897	0.362425
376.676	0.157913
378.456	0.284908
380.236	-0.104935
382.014	1.08498
383.793	0.370356
385.57	0.693323
387.349	0.242838
389.127	0.311516
390.903	0.522894
392.681	0.125172
394.456	0.808901
396.233	-0.103569
398.007	0.393276
399.784	0.467155
401.56	0.916126
403.333	-0.327114
405.108	-0.491112
406.881	0.447374
408.656	0.656715
410.428	0.184757
412.202	0.79266
413.973	0.0637474
415.746	-0.00669861
417.517	0.534443
419.29	0.771843
421.06	0.141428
422.831	0.120779
424.601	0.944086
426.37	-0.464422
428.141	0.520212
429.909	-0.303476
431.679	-0.000385284
433.447	0.0686283
435.216	-0.0728912
436.983	0.161133
438.75	0.0653858
440.519	0.248684
442.285	-0.228468
444.052	0.134966
445.818	0.190126
447.583	0.500544
449.349	0.131527
451.114	-0.0262909
452.878	0.26033
454.643	0.570267
456.407	0.0873585
458.169	-0.348408
459.934	0.310358
461.696	-0.00710106
463.458	0.050602
465.222	0.461229
466.983	0.180054
468.744	-0.119493
470.507	0.119007
472.267	-0.106476
474.027	0.225296
475.787	0.298016
477.548	0.366898
479.307	1.03816
481.065	0.310066
482.823	0.747021
484.583	0.580727
486.341	-0.257526
488.098	0.492472
489.855	0.0810032
491.612	0.207842
493.37	-0.247934
495.126	0.254795
496.881	0.313616
498.636	0.723579
500.391	0.453415
502.148	0.392931
503.902	0.706604
505.656	-0.697153
507.409	-0.200048
509.162	0.506538
510.915	-0.248215
512.668	0.617727
514.42	0.13975
516.174	-0.340521
517.925	0.000492096
519.676	0.268984
521.427	0.747381
523.178	0.449537
524.928	0.315985
526.678	0.792528
528.427	-0.138063
530.176	0.502245
531.925	0.649323
533.673	0.373449
535.422	0.212769
537.169	-0.394178
538.917	0.935198
540.664	0.370726
542.411	0.900826
544.157	0.103003
545.903	0.794163
547.649	0.323717
549.395	-0.0292053
551.14	-0.311392
552.884	-0.153103
554.629	0.582895
556.373	-0.505489
558.117	0.346027
559.86	-0.116222
561.603	-0.0241032
563.346	-0.0920048
565.089	0.53089
566.831	-0.361761
568.573	-0.54014
570.314	0.683455
572.053	0.555412
573.794	0.338898
575.534	0.469938
577.274	0.168293
579.014	0.305166
580.754	-0.107559
582.493	0.559595
584.23	0.674662
585.968	0.0749664
587.706	0.254782
589.444	-0.326773
591.181	0.332394
592.919	0.323446
594.653	0.866476
596.39	0.765446
598.126	0.0202332
599.862	0.194675
601.595	-0.0694714
603.33	0.10112
605.065	0.108011
606.8	-0.0023632
608.532	-0.0910549
610.266	0.48571
611.999	-0.198736
613.732	0.173674
615.463	-0.575882
617.196	0.347898
618.928	-0.493357
620.66	0.998968
622.389	0.634352
624.12	0.611506
625.851	0.360359
627.58	0.54545
629.31	0.414711
631.04	-0.144922
632.767	0.805401
634.497	0.251675
636.223	0.359148
637.952	0.303581
639.68	0.242943
641.406	0.47333
643.134	0.744371
644.861	0.511734
646.586	0.325773
648.312	0.371063
650.037	0.58144
651.762	0.344717
653.486	0.59271
655.211	0.688162
656.936	0.856512
658.659	0.138037
660.383	-0.0350819
662.105	-0.0515785
663.829	1.0932
665.55	0.474045
667.273	0.239689
668.994	0.644333
670.716	0.776155
672.436	0.705875
674.158	0.846346
675.877	0.532726
677.598	0.542133
679.317	0.873386
681.035	0.88154
682.755	0.679222
684.473	-0.586283
686.192	0.58449
687.909	1.24627
689.628	0.52408
691.344	1.02133
693.06	0.342642
694.778	0.537853
696.493	0.846317
698.211	0.438721
699.925	0.788448
701.64	1.08967
703.356	0.997988
705.07	0.951059
706.783	0.260649
708.498	1.10689
710.211	1.56156
711.924	0.480995
713.638	1.18573
715.35	1.82034
717.061	1.12954
718.774	0.873547
720.485	1.00583
722.196	1.47977
723.906	0.633421
725.618	0.629364
727.328	1.51058
729.037	0.619501
730.746	1.08943
732.456	1.05948
734.165	0.62204
735.873	0.705437
737.58	1.5345
739.289	1.03234
740.997	1.02885
742.703	1.6809
744.41	1.68193
746.116	1.34817
747.823	0.949835
749.529	1.04906
751.234	0.993273
752.938	1.32233
754.643	1.60912
756.347	1.38132
758.051	0.976135
759.756	1.49697
761.459	1.65989
763.162	1.50815
764.865	1.49113
766.567	1.63011
768.269	2.05963
769.97	1.30946
771.671	1.88946
773.372	2.30854
775.073	1.6414
776.773	2.37721
778.473	2.61815
780.174	1.75393
781.874	2.58814
783.573	1.97471
785.271	2.17368
786.97	2.05124
788.668	2.80543
790.365	2.6478
792.063	2.64333
793.76	1.82294
795.456	1.8608
797.153	2.26095
798.847	2.61861
800.543	2.41663
802.238	2.33006
803.933	2.67211
805.628	2.6314
807.322	1.84764
809.017	2.05054
810.71	2.22851
812.404	2.13538
814.097	2.82547
815.79	2.7752
817.483	2.63546
819.173	3.32299
820.865	2.3573
822.556	2.66568
824.248	2.3063
825.939	2.41807
827.629	2.53387
829.318	2.69949
831.008	2.91555
832.697	2.55798
834.387	2.80603
836.076	2.81093
837.765	2.86001
839.451	2.52723
841.139	2.68252
842.827	1.71819
844.514	2.09337
846.2	2.4477
847.886	2.33613
849.573	1.02094
851.259	2.03724
852.943	2.92451
854.629	2.33442
856.314	1.63036
857.997	2.04698
859.682	2.55114
861.366	2.01667
863.05	1.70375
864.732	2.37976
866.415	2.33302
868.098	1.83401
869.779	2.75478
871.461	2.14133
873.141	2.45229
874.823	2.19906
876.505	1.87807
878.184	2.41467
879.865	1.89025
881.545	2.22282
883.223	1.58325
884.903	2.00255
886.581	1.85479
888.26	2.04245
889.937	2.42983
891.616	1.64191
893.294	1.8884
894.97	1.63721
896.648	2.03626
898.323	2.11818
900	1.99615
901.675	1.67122
903.351	1.86058
905.026	1.44576
906.701	1.52341
908.375	1.37917
910.05	1.2146
911.723	1.18556
913.398	1.42449
915.07	1.41942
916.742	2.32387
918.415	1.69731
920.087	1.75852
921.76	1.59946
923.43	2.10599
925.103	1.42214
926.773	1.40495
928.443	1.25852
930.114	1.29099
931.783	1.14822
933.454	1.60157
935.123	0.974337
936.791	1.75956
938.461	1.46569
940.128	1.52704
941.796	1.39217
943.464	0.751055
945.131	1.83086
946.797	1.03245
948.465	1.90804
950.131	1.58793
951.797	0.272894
953.462	1.91415
955.128	0.911623
956.793	0.465729
958.457	1.23889
960.121	0.759897
961.786	1.52008
963.45	0.645229
965.113	0.982494
966.775	1.22643
968.44	0.889799
970.102	0.681976
971.763	0.914997
973.425	0.883457
975.086	1.25273
976.748	-0.608263
978.409	0.762487
980.069	0.685743
981.729	0.608143
983.388	0.716089
985.048	0.931025
986.708	0.832062
988.367	0.265165
990.025	0.470387
991.683	0.806768
993.341	0.987822
994.998	-0.33219
996.655	0.99683
998.312	0.273739
999.969	0.586683
1001.62	0.942507
1003.28	1.25299
1004.94	1.0786
1006.59	0.157049
1008.25	0.378902
1009.9	0.0305042
1011.56	-0.206997
1013.21	-0.0269985
1014.86	0.482025
1016.52	0.837982
1018.17	0.100538
1019.82	0.743099
1021.48	0.665659
1023.13	0.262476
1024.78	0.800962
1026.43	-0.0800095
1028.08	0.54681
1029.73	0.210985
1031.38	0.156908
1033.03	0.689262
1034.68	0.519745
1036.33	0.0644169
1037.98	0.436047
1039.63	0.349833
1041.28	0.569508
1042.93	-0.0780983
1044.57	0.03866
1046.22	0.289219
1047.87	0.239157
1049.52	0.126997
1051.16	-0.0480309
1052.81	0.125944
1054.45	0.0181637
1056.1	0.258051
1057.75	0.540949
1059.39	0.844721
1061.04	-0.483532
1062.68	0.230633
1064.32	0.0732613
1065.97	0.479162
1067.61	0.0786495
1069.25	-0.475508
1070.9	0.576538
1072.54	-0.0656624
1074.18	0.226572
1075.82	0.650707
1077.47	-0.00717354
1079.11	0.378288
1080.75	0.504896
1082.39	0.631414
1084.03	0.365875
1085.67	0.487474
1087.31	0.150068
1088.95	0.198832
1090.59	0.0494823
1092.22	-0.253128
1093.86	-0.167429
1095.5	-0.318834
1097.14	0.458416
1098.78	0.246212
1100.41	0.0161133
1102.05	0.801144
1103.69	0.319862
1105.32	-0.890085
1106.96	0.0734749
1108.59	0.175999
1110.23	-0.0246449
1111.86	-0.120693
1113.5	-0.391571
1115.13	0.645046
1116.77	-0.18721
1118.4	0.482517
1120.03	0.467098
1121.67	0.967505
1123.3	-0.0286427
1124.93	0.19734
1126.56	0.46759
1128.19	-0.137545
1129.83	0.178228
1131.46	0.195704
1133.09	0.812265
1134.72	0.0390186
1136.35	-0.329229
1137.98	0.0485287
1139.61	0.231497
1141.24	0.348326
1142.86	-0.240095
1144.49	0.174719
1146.12	-0.0490608
1147.75	-0.0151329
1149.38	-0.363073
1151	-0.0496769
1152.63	0.327419
1154.26	0.277843
1155.88	0.227503
1157.51	0.517345
1159.14	-0.255716
1160.76	-0.176186
1162.39	0.224352
1164.01	-0.0536118
1165.63	-0.649586
1167.26	0.242222
1168.88	0.515282
1170.51	0.508577
1172.13	-0.436693
1173.75	-0.365229
1175.38	0.170544
1177	0.725697
1178.62	0.00950623
1180.24	1.01017
1181.86	-0.0193901
1183.48	0.327698
1185.1	0.484209
1186.72	0.680845
1188.34	0.852772
1189.96	-0.138771
1191.58	0.720709
1193.2	0.439762
1194.82	0.51487
1196.44	0.485025
1198.06	0.0383739
1199.68	0.20265
1201.29	0.183157
1202.91	0.127102
1204.53	0.556116
1206.14	-0.0959454
1207.76	0.381239
1209.38	1.29684
1210.99	0.437717
1212.61	0.951672
1214.22	0.52302
1215.84	0.402838
1217.45	0.112917
1219.07	0.798285
1220.68	0.547915
1222.29	1.12892
1223.91	0.468204
1225.52	0.329102
1227.13	0.669037
1228.74	0.825211
1230.36	0.673611
1231.97	1.18592
1233.58	0.977083
1235.19	0.729412
1236.8	1.43488
1238.41	1.56374
1240.02	0.742765
1241.63	0.666353
1243.24	0.671976
1244.85	1.06922
1246.46	1.27829
1248.07	1.03011
1249.67	0.842548
1251.28	1.41987
1252.89	1.06671
1254.5	1.56307
1256.1	1.15151
1257.71	1.36295
1259.32	1.24571
1260.92	1.39925
1262.53	1.71949
1264.13	1.50138
1265.74	1.67602
1267.34	1.49688
1268.95	1.95846
1270.55	1.11178
1272.15	1.71432
1273.76	0.739077
1275.36	1.50332
1276.97	0.939127
1278.57	1.01584
1280.17	1.40186
1281.77	0.876316
1283.37	1.32378
1284.97	1.02752
1286.58	1.35341
1288.18	1.59853
1289.78	2.65136
1291.38	1.86593
1292.98	2.63004
1294.58	1.20262
1296.18	1.81781
1297.78	2.07836
1299.37	1.96387
1300.97	1.90829
1302.57	1.54132
1304.17	2.28429
1305.77	1.66752
1307.36	2.32425
1308.96	2.13785
1310.55	1.74699
1312.15	1.84901
1313.75	1.99327
1315.34	1.6285
1316.94	2.7158
1318.53	2.76212
1320.13	2.60419
1321.72	1.9761
1323.32	2.40409
1324.91	1.87229
1326.5	2.73954
1328.1	2.08305
1329.69	1.77359
1331.28	2.94448
1332.87	2.50135
1334.47	2.48764
1336.06	2.11409
1337.65	1.9437
1339.24	1.85272
1340.83	2.8863
1342.42	2.20324
1344.01	2.56264
1345.6	2.49739
1347.19	2.05173
1348.78	2.0713
1350.37	1.87577
1351.96	1.98574
1353.54	1.38007
1355.13	1.89668
1356.72	2.31381
1358.31	1.73101
1359.89	1.48612
1361.48	2.63638
1363.07	1.17061
1364.65	2.01835
1366.24	1.96907
1367.82	1.40379
1369.41	1.14008
1370.99	1.7351
1372.58	1.07915
1374.16	2.31581
1375.75	0.947193
1377.33	1.78745
1378.91	2.16899
1380.5	2.46878
1382.08	2.02969
1383.66	1.80689
1385.25	1.14495
1386.83	0.979431
1388.41	1.7477
1389.99	1.02801
1391.57	1.56073
1393.15	1.55914
1394.73	1.28066
1396.31	1.79505
1397.89	0.781359
1399.47	1.3912
1401.05	1.74112
1402.63	1.77279
1404.21	0.162434
1405.78	0.789143
1407.36	1.93086
1408.94	1.4336
1410.52	1.51048
1412.1	1.46874
1413.67	1.42581
1415.25	1.12457
1416.82	0.644487
1418.4	1.52412
1419.98	1.49739
1421.55	1.66982
1423.13	1.17612
1424.7	1.55194
1426.28	1.2414
1427.85	0.931917
1429.42	1.64537
1431	1.9633
1432.57	1.45231
1434.14	0.723253
1435.71	1.78345
1437.29	1.29027
1438.86	2.0765
1440.43	2.27494
1442	1.29618
1443.57	1.24254
1445.14	2.29032
1446.71	1.94307
1448.28	2.12686
1449.85	1.91813
1451.42	1.51367
1452.99	1.9755
1454.56	1.92684
1456.13	2.25191
1457.7	1.70988
1459.26	1.55877
1460.83	3.03753
1462.4	1.97392
1463.97	1.45834
1465.54	2.0221
1467.1	1.03277
1468.67	1.53734
1470.23	1.59191
1471.8	0.530575
1473.36	0.491781
1474.93	1.02319
1476.49	0.849443
1478.06	0.0486202
1479.62	0.404409
1481.19	0.897135
1482.75	0.880058
1484.31	1.11744
1485.88	0.707565
1487.44	0.962206
1489	0.763735
1490.56	1.32482
1492.13	0.824932
1493.69	0.790337
1495.25	0.888784
1496.81	0.595219
1498.37	0.885704
1499.93	1.09889
1501.49	0.61499
1503.05	0.910185
1504.61	-0.0720921
1506.17	-0.00681877
1507.73	0.463226
1509.28	0.408655
1510.84	0.390509
1512.4	0.582695
1513.96	0.927607
1515.52	0.445581
1517.07	0.522696
1518.63	1.02307
1520.19	0.910646
1521.74	1.29637
1523.3	0.82049
1524.85	0.324972
1526.41	0.80105
1527.96	1.02647
1529.52	1.30722
1531.07	0.960621
1532.63	0.274836
1534.18	0.899225
1535.73	1.354
1537.29	0.487249
1538.84	1.32235
1540.39	1.40239
1541.94	0.540615
1543.5	1.33639
1545.05	1.2654
1546.6	1.55097
1548.15	1.12266
1549.7	1.35121
1551.25	1.89801
1552.8	1.60311
1554.35	2.45084
1555.9	1.24595
1557.45	1.27819
1559	2.22874
1560.55	2.08221
1562.1	2.03241
1563.65	1.7611
1565.19	2.088
1566.74	1.40748
1568.29	1.69685
1569.83	1.85484
1571.38	1.93743
1572.93	2.44879
1574.47	2.10121
1576.02	2.29507
1577.56	2.15339
1579.11	2.75941
1580.66	2.04119
1582.2	2.61307
1583.74	2.92551
1585.29	2.84734
1586.83	2.6767
1588.38	2.91773
1589.92	2.87782
1591.46	2.91185
1593.01	3.05724
1594.55	1.51638
1596.09	2.31678
1597.63	2.29392
1599.17	2.59124
1600.71	2.98413
1602.25	2.43997
1603.79	1.91398
1605.34	2.43816
1606.88	2.20812
1608.41	2.27466
1609.95	2.74989
1611.49	2.88182
1613.03	2.87802
1614.57	1.76422
1616.11	2.28273
1617.65	1.63954
1619.18	1.86126
1620.72	1.69264
1622.26	2.63162
1623.79	1.66245
1625.33	1.36745
1626.87	2.15646
1628.4	2.00695
1629.94	1.33113
1631.48	1.81267
1633.01	1.73257
1634.55	1.63459
1636.08	1.20257
1637.61	1.74257
1639.15	1.64958
1640.68	1.91081
1642.21	1.64896
1643.75	1.94373
1645.28	1.43559
1646.81	0.870573
1648.34	0.510223
1649.88	1.72945
1651.41	1.2605
1652.94	1.18404
1654.47	1.55483
1656	1.29647
1657.53	1.42722
1659.06	1.20443
1660.59	0.683134
1662.12	0.95516
1663.65	1.3725
1665.18	1.27096
1666.71	0.801277
1668.24	1.25653
1669.76	1.05067
1671.29	0.792679
1672.82	0.758034
1674.35	1.01894
1675.87	1.64744
1677.4	1.31694
1678.93	0.745424
1680.45	1.07335
1681.98	1.10544
1683.5	0.641125
1685.03	1.00333
1686.55	0.448902
1688.08	0.464191
1689.6	0.956535
1691.13	0.82637
1692.65	0.641607
1694.17	0.566675
1695.7	0.619469
1697.22	-0.00431061
1698.74	0.157183
1700.27	0.609657
1701.79	0.00278282
1703.31	-0.130516
1704.83	0.00849915
1706.35	-0.108292
1707.87	0.701712
1709.39	0.166134
1710.91	0.684221
1712.43	0.0232468
1713.95	0.595652
1715.47	0.370789
1716.99	-0.378353
1718.51	0.26507
1720.03	0.203087
1721.55	-0.273384
1723.07	0.405844
1724.58	0.563671
1726.1	0.778021
1727.62	-0.139084
1729.13	0.853786
1730.65	0.248106
1732.17	0.397293
1733.68	0.0966663
1735.2	-0.0906639
1736.72	-0.375393
1738.23	-0.137175
1739.74	0.119213
1741.26	0.357712
1742.77	0.234133
1744.29	0.387407
1745.8	0.150568
1747.32	-0.0469818
1748.83	0.0281467
1750.34	-0.101658
1751.85	0.435114
1753.37	0.598806
1754.88	-0.109215
1756.39	-0.204327
1757.9	-0.0693512
1759.41	0.424067
1760.92	0.285637
1762.44	-0.211319
1763.95	0.26955
1765.46	0.0431099
1766.96	-0.215956
1768.47	-0.0220585
1769.98	0.346373
1771.49	0.0871086
1773	-0.467903
1774.51	-0.115244
1776.02	0.252619
1777.53	-0.453041
1779.03	0.0297546
1780.54	0.179945
1782.05	-0.0548515
1783.55	0.00501823
1785.06	0.214912
1786.57	0.148857
1788.07	0.112148
1789.58	0.0745239
1791.08	0.237972
1792.59	0.172819
1794.09	-0.328056
1795.6	0.281792
1797.1	0.221029
1798.61	-0.195507
1800.11	-0.341635
1801.61	0.307537
1803.12	0.45821
1804.62	0.252907
1806.12	0.205299
1807.62	-0.000402451
1809.12	0.319258
1810.63	0.194977
1812.13	0.231297
1813.63	-0.0779915
1815.13	0.14353
1816.63	0.285788
1818.13	0.388996
1819.63	0.150496
1821.13	0.300364
1822.63	0.126684
1824.13	0.0579777
1825.63	0.397982
1827.13	0.0657539
1828.62	0.0118618
1830.12	0.0596046
1831.62	0.000236511
1833.12	-0.309677
1834.61	0.0113106
1836.11	-0.200569
1837.61	0.226616
1839.1	-0.0665321
1840.6	0.255621
1842.09	-0.0742188
1843.59	0.535551
1845.09	0.299223
1846.58	0.112261
1848.08	0.264671
1849.57	-0.253708
1851.06	0.223213
1852.56	0.291126
1854.05	0.218567
1855.54	0.534124
1857.04	-0.309828
1858.53	0.468119
1860.02	0.0709534
1861.51	-0.240152
1863.01	0.137339
1864.5	0.732222
1865.99	-0.0111694
1867.48	-0.122961
1868.97	0.588396
1870.46	0.223476
1871.95	0.407795
1873.44	0.00136948
1874.93	0.227209
1876.42	0.766485
1877.91	0.208199
1879.4	0.422871
1880.89	-0.188061
1882.37	0.261734
1882.46	0.290588
1883.95	0.275162
1885.45	0.170902
1886.94	-0.457726
1888.43	0.201363
1889.93	0.807899
1891.42	0.529112
1892.91	0.132406
1894.41	0.504862
1895.9	0.0810699
1897.39	0.824324
1898.88	0.419689
1900.37	0.0127659
1901.86	0.559072
1903.36	-0.150936
1904.85	0.266296
1906.34	-0.01367
1907.83	0.592188
1909.32	-0.155098
1910.81	0.124001
1912.29	0.387617
1913.78	0.270891
1915.27	0.102455
1916.76	0.470856
1918.25	0.144606
1919.74	-0.321062
1921.23	0.564383
1922.71	0.601675
1924.2	0.0176544
1925.69	0.492275
1927.17	0.0690842
1928.66	0.253319
1930.15	0.645416
1931.63	0.0314655
1933.12	-0.291168
1934.6	0.490402
1936.09	0.50633
1937.57	0.554117
1939.06	0.669857
1940.54	-0.0945969
1942.02	0.213692
1943.51	0.161751
1944.99	0.0428276
1946.47	0.614454
1947.96	-0.24511
1949.44	0.462044
1950.92	0.133291
1952.4	0.233067
1953.88	-0.201649
1955.37	0.274771
1956.85	0.442276
1958.33	0.902866
1959.81	-0.470888
1961.29	0.301237
1962.77	-0.5037
1964.25	-0.228922
1965.73	0.267204
1967.21	0.43614
1968.69	0.1758
1970.16	0.598246
1971.64	-0.0907593
1973.12	0.501236
1974.6	-0.425413
1976.08	0.200674
1977.55	-0.0594082
1979.03	0.208763
1980.51	0.170357
1981.98	0.114656
1983.46	-0.162407
1984.94	-0.100292
1986.41	-0.157526
1987.89	-0.689243
1989.36	0.507824
1990.84	0.452332
1992.31	0.0268631
1993.79	0.195713
1995.26	0.197245
1996.73	-0.0198498
1998.21	0.371168
1999.68	0.490904
2001.15	-0.0995159
2002.63	-0.251919
2004.1	-0.202194
2005.57	0.202017
2007.04	0.45586
2008.51	0.341145
2009.99	0.144201
2011.46	0.302011
2012.93	0.190643
2014.4	0.0448036
2015.87	0.116125
2017.34	0.269564
2018.81	0.000823975
2020.28	0.100794
2021.75	0.0323868
2023.21	-0.068861
2024.68	0.469213
2026.15	0.103662
2027.62	0.29479
2029.09	0.45558
2030.56	-0.169147
2032.02	-0.120869
2033.49	-0.423996
2034.96	0.280243
2036.42	-0.544481
2037.89	0.561556
2039.36	0.272308
2040.82	0.386204
2042.29	-0.272509
2043.75	-0.122753
2045.22	0.331879
2046.68	-0.187868
2048.14	-0.168463
2049.61	-0.0316734
2051.07	0.0525818
2052.54	-0.237339
2054	0.379637
2055.46	0.368864
2056.93	0.0348186
2058.39	0.356449
2059.85	0.677408
2061.31	-0.061821
2062.77	-0.411737
2064.23	0.0820541
2065.7	0.0224991
2067.16	0.200342
2068.62	0.0933571
2070.08	-0.349613
2071.54	-0.0686474
2073	0.380486
2074.46	0.677607
2075.92	-0.373138
2077.38	0.17511
2078.83	0.149963
2080.29	0.32593
2081.75	0.147135
2083.21	0.556156
2084.67	0.273441
2086.12	0.258501
2087.58	0.46084
2089.04	0.695698
2090.49	0.459532
2091.95	0.340969
2093.41	0.47406
2094.86	0.00274086
2096.32	0.637152
2097.77	0.683121
2099.23	0.192095
2100.68	0.771397
2102.14	0.0802212
2103.59	-0.0405254
2105.05	0.642599
2106.5	0.360424
2107.95	0.897957
2109.41	0.535591
2110.86	0.555775
2112.31	0.673201
2113.76	-0.295519
2115.21	0.514294
2116.67	0.0739136
2118.12	0.0335121
2119.57	0.22817
2121.02	0.492851
2122.47	0.0647831
2123.92	-0.14451
2125.37	0.211391
2126.82	0.284929
2128.27	0.820601
2129.72	0.425146
2131.17	0.474531
2132.62	0.422844
2134.07	0.718464
2135.51	0.254721
2136.96	0.984343
2138.41	0.494474
2139.86	0.950546
2141.31	0.633226
2142.75	0.748125
2144.2	0.914108
2145.65	0.832304
2147.09	0.633938
2148.54	0.798534
2149.98	0.0503101
2151.43	-0.0871124
2152.87	0.568815
2154.32	0.74258
2155.76	0.782799
2157.21	0.392399
2158.65	0.715662
2160.1	0.130394
2161.54	0.956793
2162.98	1.20725
2164.43	0.76442
2165.87	1.26902
2167.31	0.760803
2168.75	0.598989
2170.2	0.998974
2171.64	0.796125
2173.08	1.03845
2174.52	1.01175
2175.96	0.41835
2177.4	1.65449
2178.84	0.763729
2180.28	0.52338
2181.72	1.432
2183.16	1.04497
2184.6	0.791443
2186.04	0.221889
2187.48	0.850151
2188.92	0.330418
2190.36	0.609426
2191.79	0.838062
2193.23	0.882179
2194.67	0.707245
2196.11	1.04478
2197.54	0.512894
2198.98	1.34159
2200.42	0.887541
2201.85	0.815632
2203.29	0.429825
2204.72	0.428003
2206.16	0.676834
2207.59	0.959686
2209.03	0.231852
2210.46	0.61216
2211.9	1.07274
2213.33	0.522825
2214.77	1.06353
2216.2	0.581211
2217.63	0.184172
2219.07	0.696941
2220.5	0.897873
2221.93	0.555136
2223.36	0.738483
2224.8	0.836586
2226.23	0.783003
2227.66	0.693224
2229.09	0.765188
2230.52	0.638483
2231.95	1.13428
2233.39	0.663704
2234.81	0.735237
2236.25	0.384188
2237.67	0.804132
2239.1	0.672594
2240.53	0.0884838
2241.96	0.274744
2243.39	0.740776
2244.82	0.653065
2246.25	1.15131
2247.68	0.977619
2249.1	0.636602
2250.53	0.3403
2251.96	0.0245857
2253.38	0.472002
2254.81	0.139187
2256.24	-0.0279827
2257.66	0.117874
2259.09	0.171852
2260.51	0.783247
2261.94	0.0365067
2263.36	0.737669
2264.79	0.221619
2266.21	0.647345
2267.64	0.51881
2269.06	0.534765
2270.49	0.74441
2271.91	0.578583
2273.33	-0.12517
2274.76	-0.0146198
2276.18	0.405943
2277.6	0.859652
2279.02	0.873568
2280.44	-0.0584259
2281.87	0.117985
2283.29	0.571613
2284.71	-0.0515099
2286.13	0.321129
2287.55	0.580387
2288.97	0.105669
2290.39	0.742512
2291.81	0.236151
2293.23	0.351036
2294.65	0.0242195
2296.07	0.908194
2297.49	0.368135
2298.91	0.106186
2300.33	-0.270393
2301.74	0.0910816
2303.16	0.125362
2304.58	0.553909
2306	0.292994
2307.41	0.754089
2308.83	0.458349
2310.25	0.226954
2311.66	0.0768089
2313.08	0.568146
2314.5	0.500923
2315.91	0.138678
2317.33	0.321281
2318.74	1.04897
2320.16	0.457582
2321.57	0.638988
2322.98	0.371155
2324.4	0.445217
2325.81	0.828182
2327.23	1.53714
2328.64	0.859236
2330.05	0.725937
2331.46	0.364006
2332.88	0.432478
2334.29	-0.0568008
2335.7	0.194956
2337.11	0.462204
2338.52	0.612284
2339.94	-0.0945625
2341.35	0.00217247
2342.76	-0.0499668
2344.17	0.0618477
2345.58	0.141228
2346.99	0.25383
2348.4	0.710129
2349.81	0.199932
2351.22	-0.0168247
2352.62	0.303837
2354.03	0.279354
2355.44	0.269817
2356.85	-0.261471
2358.26	0.00529861
2359.67	0.157967
2361.07	0.180655
2362.48	-0.299358
2363.89	0.112253
2365.29	0.231625
2366.7	0.140982
2368.11	0.164675
2369.51	-0.245239
2370.92	0.476408
2372.32	0.571461
2373.73	-0.0239735
2375.13	0.18675
2376.54	-0.263048
2377.94	-0.0551109
2379.35	0.326328
2380.75	0.286436
2382.15	0.388111
2383.56	-0.281094
2384.96	-0.149378
2386.36	0.0865993
2387.76	0.227972
2389.17	-0.0511532
2390.57	0.453295
2391.97	0.513556
2393.37	-0.156172
2394.77	0.0829544
2396.17	0.116585
2397.58	0.485184
2398.98	0.282713
2400.38	-0.585903
2401.78	-0.151165
2403.18	0.267662
2404.58	-0.219414
2405.97	-0.0729084
2407.37	0.246227
2408.77	0.753815
2410.17	0.00789452
2411.57	0.261242
2412.97	0.341684
2414.37	0.47204
2415.76	0.431108
2417.16	0.392839
2418.56	-0.0552864
2419.95	0.415743
2421.35	0.284813
2422.75	0.153154
2424.14	0.242727
2425.54	0.348227
2426.93	0.137737
2428.33	0.483667
2429.72	0.530359
2431.12	0.499182
2432.51	-0.119059
2433.91	0.642876
2435.3	0.179939
2436.7	0.0952454
2438.09	0.0552387
2439.48	0.25098
2440.88	0.492426
2442.27	-0.124626
2443.66	0.194435
2445.05	0.449429
2446.44	0.402651
2447.84	0.371489
2449.23	0.577913
2450.62	0.119566
2452.01	0.184893
2453.4	-0.175568
2454.79	-0.1229
2456.18	0.279102
2457.57	0.112255
2458.96	-0.212996
2460.35	0.251488
2461.74	-0.0130539
2463.13	-0.500262
2464.52	0.244114
2465.91	0.00811577
2467.29	-0.0542412
2468.68	0.498713
2470.07	0.0571957
2471.46	0.529505
2472.85	0.747902
2474.23	0.633886
2475.62	-0.330725
2477.01	0.182928
2478.39	0.41292
2479.78	0.250534
2481.16	-0.115105
2482.55	-0.182583
2483.93	-0.313423
2485.32	-0.336162
2486.7	0.0296288
2488.09	0.174007
2489.47	0.145107
2490.86	0.629587
2492.24	0.414265
2493.62	0.123857
2495.01	0.271002
2496.39	0.451334
2497.77	-0.0639
2499.15	0.350883
2500.54	-0.364644
2501.92	-0.122282
2503.3	0.426657
2504.68	0.432873
2506.06	-0.255553
2507.45	0.242182
2508.83	-0.30643
2510.21	0.0223331
2511.59	-0.154683
2512.97	0.0380058
2514.35	0.538366
2515.73	-0.00113678
2517.11	-0.217205
2518.48	-0.141484
2519.86	-0.0349121
2521.24	0.468187
2522.62	-0.312681
2524	-0.117883
2525.38	0.303873
2526.75	0.282776
2528.13	0.216785
2529.51	-0.0751476
2530.89	0.000982285
2532.26	0.338572
2533.64	0.253303
2535.02	0.534127
2536.39	0.283195
2537.77	-0.0752554
2539.14	0.0202579
2540.52	0.144504
2541.89	0.495592
2543.27	-0.139291
2544.64	-0.135167
2546.01	-0.250112
2547.39	-0.347586
2548.76	0.0723495
2550.14	0.00710678
2551.51	-0.210758
2552.88	0.419544
2554.25	-0.317957
2555.63	0.611981
2557	-0.461787
2558.37	0.17824
2559.74	0.0452652
2561.11	0.458988
2562.49	0.388885
2563.86	0.0926332
2565.23	0.282182
2566.6	-0.300643
2567.97	0.0865908
2569.34	0.428436
2570.71	0.239823
2572.08	0.596952
2573.45	-0.243241
2574.82	-0.0979795
2576.18	-0.452933
2577.55	0.313946
2578.92	-0.0870428
2580.29	0.057188
2581.66	0.155156
2583.02	0.024992
2584.39	-0.0449686
2585.76	0.324574
2587.13	0.0273647
2588.49	-0.133025
2589.86	-0.384079
2591.22	0.592153
2592.59	0.446107
2593.96	0.571267
2595.32	0.0432253
2596.69	0.08885
2598.05	0.314445
2599.42	-0.216932
2600.78	0.18933
2602.14	0.39975
2603.51	0.279164
2604.87	0.099432
2606.23	-0.275843
2607.6	0.464467
2608.96	-0.123733
2610.32	0.235434
2611.69	0.125025
2613.05	-0.197927
2614.41	-0.0710535
2615.77	0.100058
2617.13	0.226264
2618.49	-0.155858
2619.86	0.212383
2621.22	0.11792
2622.58	-0.498354
2623.94	-0.0232468
2625.3	0.570557
2626.66	-0.164105
2628.02	0.2491
2629.37	0.139966
2630.73	-0.11816
2632.09	0.203714
2633.45	0.0793695
2634.81	0.118462
2636.17	0.454064
2637.53	-0.114814
2638.88	0.398219
2640.24	-0.198879
2641.6	0.2403
2642.96	-0.0297308
2644.31	-0.033287
2645.67	-0.0959415
2647.02	-0.24765
2648.38	-0.120477
2649.74	0.284602
2651.09	-0.47383
2652.45	0.149225
2653.8	0.111173
2655.16	0.67555
2656.51	0.845637
2657.86	0.446938
2659.22	-0.0372868
2660.57	0.108556
2661.93	0.180986
2663.28	0.427554
2664.63	-0.349458
2665.98	0.156798
2667.34	-0.213068
2668.69	0.101892
2670.04	0.053091
2671.39	0.310691
2672.75	0.336666
2674.09	-0.188024
2675.45	0.290456
2676.8	0.218258
2678.15	0.205372
2679.5	-0.0959425
2680.85	-0.235753
2682.2	0.221066
2683.55	0.361192
2684.9	-0.0624409
2686.25	-0.00658894
2687.6	0.150745
2688.94	0.102797
2690.29	0.588911
2691.64	0.273162
2692.99	-0.0597591
2694.34	0.432347
2695.68	-0.00400734
2697.03	0.242013
2698.38	0.0847387
2699.73	0.133346
2701.07	-0.0754452
2702.42	0.0516062
2703.76	-0.340917
2705.11	-0.312368
2706.45	0.093441
2707.8	0.237995
2709.15	0.0335455
2710.49	0.0605869
2711.83	-0.145254
2713.18	0.0553999
2714.52	0.0234928
2715.87	-0.124837
2717.21	0.322823
2718.55	0.450223
2719.9	-0.0195541
2721.24	0.251899
2722.58	0.318793
2723.93	0.355726
2725.27	0.0570822
2726.61	-0.329548
2727.95	-0.294622
2729.29	0.0454817
2730.63	0.181546
2731.98	-0.0461836
2733.32	0.322728
2734.66	0.15372
2736	0.27602
2737.34	0.282244
2738.68	0.666582
2740.02	0.308812
2741.36	0.0956793
2742.7	0.215837
2744.03	0.596267
2745.37	0.583046
2746.71	0.26407
2748.05	-0.359801
2749.39	0.0616159
2750.72	-0.387147
2752.06	0.150775
2753.4	-0.00690079
2754.74	0.371933
2756.07	0.33077
2757.41	0.333383
2758.75	0.00353146
2760.08	-0.339938
2761.42	0.156905
2762.76	0.104687
2764.09	0.45822
2765.42	0.131741
2766.76	0.426637
2768.09	0.112298
2769.43	0.316382
2770.76	-0.47951
2772.1	0.0518093
2773.43	0.21971
2774.76	0.155633
2776.1	0.235618
2777.43	-0.48982
2778.76	0.00927734
2780.1	0.221191
2781.43	-0.212798
2782.76	-0.172414
2784.09	0.240736
2785.42	-0.16365
2786.75	0.120336
2788.09	-0.267917
2789.42	0.189789
2790.75	0.276896
2792.08	-0.363805
2793.41	0.0116348
2794.74	0.344158
2796.07	0.0901394
2797.4	0.392373
2798.73	-0.677346
2800.06	0.151281
2801.39	0.108494
2802.71	-0.205487
2804.04	0.335479
2805.37	0.0632515
2806.7	0.0180368
2808.03	0.0286579
2809.35	0.10956
2810.68	-0.207277
2812.01	-0.0401115
2813.33	0.0295572
2814.66	0.215173
2815.99	-0.064456
2817.31	-0.20023
2818.64	0.00525951
2819.96	-0.00177956
2821.29	0.316408
2822.61	-0.146055
2823.94	0.183953
2825.26	-0.0109167
2826.59	0.162567
2827.91	-0.427677
2829.23	-0.0399542
2830.56	0.0654182
2831.88	0.256119
2833.21	0.262724
2834.53	0.353728
2835.85	0.557083
2837.17	0.26421
2838.5	0.225336
2839.82	0.553808
2841.14	0.726752
2842.46	0.758974
2843.78	0.509637
2845.1	0.968204
2846.42	1.45611
2847.74	1.23806
2849.06	1.5854
2850.38	1.49413
2851.71	1.74124
2853.03	1.43626
2854.34	1.6394
2855.66	1.81388
2856.98	1.77639
2858.3	1.52713
2859.62	1.54626
2860.94	1.50864
2862.26	1.66816
2863.57	1.93991
2864.89	1.66079
2866.21	2.27047
2867.53	1.7097
2868.84	2.19329
2870.16	2.50822
2871.48	2.31591
2872.79	2.43331
2874.11	2.63403
2875.42	2.46671
2876.74	2.43855
2878.05	2.52166
2879.37	2.44947
2880.68	2.57462
2882	2.37777
2883.31	2.11252
2884.63	2.08765
2885.94	3.22891
2887.26	2.75582
2888.57	2.0297
2889.88	2.90193
2891.19	2.4962
2892.51	2.70652
2893.82	2.79027
2895.13	2.70645
2896.44	3.01586
2897.76	2.72501
2899.07	2.81366
2900.38	3.18332
2901.69	3.00813
2903	3.2949
2904.31	3.42799
2905.62	3.2398
2906.93	2.96851
2908.24	3.25793
2909.55	3.36683
2910.86	3.3647
2912.17	3.48856
2913.48	4.07334
2914.79	4.09611
2916.1	3.66827
2917.41	4.00797
2918.71	4.31793
2920.02	4.47351
2921.33	4.43421
2922.64	4.59247
2923.94	4.05388
2925.25	4.60733
2926.56	4.18325
2927.86	4.77973
2929.17	4.91435
2930.48	4.47496
2931.78	4.85964
2933.09	4.79657
2934.39	4.42594
2935.7	4.46081
2937	4.67758
2938.31	4.29369
2939.61	3.99405
2940.92	3.80692
2942.22	3.60697
2943.53	3.71612
2944.83	3.46373
2946.13	4.024
2947.43	3.2145
2948.74	3.39779
2950.04	3.3556
2951.34	2.91878
2952.64	2.94129
2953.95	2.98975
2955.25	2.82757
2956.55	3.47838
2957.85	2.78829
2959.15	2.81586
2960.45	2.49718
2961.75	2.85389
2963.05	2.9879
2964.35	3.23367
2965.65	3.00002
2966.95	2.62308
2968.25	2.42658
2969.55	2.45376
2970.85	2.56509
2972.15	2.2548
2973.45	2.35293
2974.75	2.28219
2976.05	2.28088
2977.34	2.02421
2978.64	1.97615
2979.94	2.23513
2981.24	1.50685
2982.53	2.04407
2983.83	1.23154
2985.13	1.88282
2986.42	1.56644
2987.72	0.999395
2989.01	1.19266
2990.31	1.45666
2991.61	0.820439
2992.9	1.39126
2994.19	1.17303
2995.49	1.43063
2996.78	0.970717
2998.08	0.552876
2999.37	0.865101
3000.67	0.729135
3001.96	0.972589
3003.25	1.04835
3004.55	0.46581
3005.84	0.765425
3007.13	0.167887
3008.42	0.143171
3009.72	0.382683
3011.01	0.676475
3012.3	0.326766
3013.59	0.214647
3014.88	0.354186
3016.17	0.18809
3017.46	0.427092
3018.76	0.249177
3020.05	0.321877
3021.34	0.171333
3022.63	-0.0498943
3023.92	0.199388
3025.21	0.0863791
3026.49	-0.15157
3027.78	0.248074
3029.07	-0.042592
3030.36	0.567599
3031.65	0.17137
3032.94	0.0532837
3034.23	0.61201
3035.51	-0.265307
3036.8	0.303778
3038.09	0.345533
3039.38	0.0399017
3040.66	0.36451
3041.95	0.178693
3043.23	0.198714
3044.52	0.0556469
3045.81	-0.00248528
3047.09	0.639639
3048.38	0.684
3049.66	0.540818
3050.95	-0.118196
3052.23	0.261255
3053.52	0.163089
3054.8	0.282091
3056.09	0.16736
3057.37	1.0323
3058.65	0.069129
3059.94	0.086833
3061.22	0.295457
3062.5	0.437287
3063.79	0.513182
3065.07	0.197261
3066.35	-0.075614
3067.63	-0.374169
3068.92	-0.0467062
3070.2	0.13074
3071.48	-0.0333004
3072.76	0.15416
3074.04	0.135414
3075.32	0.305177
3076.6	0.215986
3077.88	0.181656
3079.16	-0.190254
3080.44	0.199983
3081.72	0.158518
3083	-0.423602
3084.28	-0.0143623
3085.56	0.082902
3086.84	-0.268577
3088.12	0.342315
3089.4	0.0696392
3090.67	-0.393877
3091.95	0.0242071
3093.23	-0.113921
3094.51	0.0195618
3095.78	0.193977
3097.06	-0.173914
3098.34	-0.203082
3099.61	0.160332
3100.89	0.292946
3102.17	-0.18401
3103.44	0.0300388
3104.72	0.258172
3105.99	0.135396
3107.27	0.216984
3108.54	0.245995
3109.82	0.2631
3111.09	0.281707
3112.37	0.017025
3113.64	0.335374
3114.92	-0.308669
3116.19	0.0222855
3117.46	0.202623
3118.74	0.299646
3120.01	0.109788
3121.28	-0.298672
3122.55	0.132202
3123.83	0.115129
3125.1	-0.0778875
3126.37	0.095212
3127.64	0.282431
3128.91	0.402575
3130.19	0.17151
3131.46	-0.00536537
3132.73	0.168778
3134	-0.0902414
3135.27	0.095417
3136.54	0.333656
3137.81	0.112092
3139.08	0.307599
3140.35	-0.0361538
3141.62	0.131549
3142.89	0.0573359
3144.16	-0.11019
3145.42	0.313573
3146.69	0.335426
3147.96	0.492098
3149.23	0.622546
