200.523	1.08367
202.339	1.09726
204.154	1.11133
205.967	0.688984
207.781	1.094
209.596	0.307384
211.409	0.467373
213.222	1.20809
215.034	1.09752
216.848	0.986448
218.659	0.512434
220.47	0.451417
222.281	0.827153
224.091	0.913646
225.903	0.517589
227.713	0.170315
229.522	0.498996
231.331	0.223371
233.14	-0.14879
234.948	-0.0378218
236.756	-0.672496
238.566	-0.0750465
240.373	0.236362
242.18	0.406209
243.986	-0.411105
245.792	1.13603
247.598	0.533548
249.403	0.77243
251.208	0.0656157
253.013	0.224546
254.818	0.212326
256.624	1.11585
258.427	0.670194
260.231	0.588547
262.034	-0.14085
263.836	0.264219
265.638	-0.0520411
267.44	0.379171
269.242	-0.39508
271.043	-0.0856495
272.844	0.0777531
274.645	0.0465097
276.445	0.133743
278.245	0.0980978
280.044	0.421188
281.843	0.813431
283.642	-0.264313
285.44	0.0515375
287.238	0.293819
289.036	-0.303475
290.833	-0.251869
292.63	0.42367
294.425	0.143595
296.221	0.439612
298.017	0.115484
299.813	0.962973
301.608	0.352777
303.403	-0.0909615
305.198	1.39708
306.992	0.855044
308.786	0.718606
310.579	0.535498
312.371	0.640016
314.163	0.627745
315.956	0.594253
317.748	0.467994
319.54	0.224672
321.331	0.650127
323.122	0.361702
324.911	0.0496883
326.701	0.740374
328.491	0.643199
330.281	1.26225
332.071	0.708331
333.857	0.510527
335.646	0.668753
337.434	0.656408
339.222	0.641253
341.008	0.289232
342.795	0.271125
344.582	0.372494
346.369	0.116243
348.153	-0.258273
349.939	0.77656
351.724	0.140301
353.51	0.839854
355.292	0.201758
357.077	0.253884
358.861	0.137403
360.643	0.329138
362.426	0.0910702
364.21	0.518136
365.99	0.397146
367.773	0.180393
369.555	0.176312
371.335	0.289535
373.116	0.874739
374.897	-0.0306253
376.676	0.789309
378.456	0.429271
380.236	0.118358
382.014	0.539248
383.793	0.349774
385.57	0.773526
387.349	0.446703
389.127	0.121685
390.903	0.0330296
392.681	-0.0779562
394.456	0.258101
396.233	0.312893
398.007	0.391335
399.784	0.305177
401.56	-0.908981
403.333	-0.22142
405.108	0.042387
406.881	0.563474
408.656	0.590566
410.428	0.100838
412.202	0.714403
413.973	-0.196808
415.746	0.183629
417.517	-0.0918255
419.29	0.314113
421.06	0.321519
422.831	0.539889
424.601	-0.346017
426.37	0.151935
428.141	0.249701
429.909	-0.0287189
431.679	-0.166248
433.447	-0.232903
435.216	-0.0643749
436.983	0.221494
438.75	0.0370455
440.519	-0.172753
442.285	0.623514
444.052	0.548658
445.818	0.518199
447.583	0.0180779
449.349	0.476954
451.114	0.397865
452.878	-0.147466
454.643	0.894457
456.407	0.839352
458.169	-0.0541878
459.934	-0.0619707
461.696	-0.115276
463.458	-0.282611
465.222	0.157501
466.983	-0.606876
468.744	0.305487
470.507	0.174673
472.267	0.416849
474.027	0.634998
475.787	0.664557
477.548	0.528068
479.307	0.878217
481.065	0.458343
482.823	0.388169
484.583	0.808792
486.341	0.859577
488.098	0.517224
489.855	0.667171
491.612	0.912244
493.37	0.317563
495.126	-0.137589
496.881	0.670423
498.636	-0.0200281
500.391	0.60099
502.148	0.799725
503.902	0.598207
505.656	0.700381
507.409	0.683173
509.162	0.169787
510.915	0.736323
512.668	0.312492
514.42	0.310163
516.174	0.258932
517.925	0.464791
519.676	1.11576
521.427	0.895742
523.178	0.323047
524.928	0.97116
526.678	0.961753
528.427	0.178694
530.176	0.521134
531.925	-0.00392532
533.673	0.523837
535.422	0.277411
537.169	1.12779
538.917	-0.406642
540.664	0.579102
542.411	0.35033
544.157	0.21465
545.903	0.451038
547.649	0.594295
549.395	1.15484
551.14	0.487253
552.884	0.53843
554.629	0.266315
556.373	0.38755
558.117	0.55522
559.86	-0.0369587
561.603	-0.39713
563.346	0.0720835
565.089	0.541426
566.831	0.551671
568.573	-0.217483
570.314	-0.318962
572.053	0.843264
573.794	0.355855
575.534	-0.22081
577.274	0.122461
579.014	0.123446
580.754	-0.127162
582.493	0.104695
584.23	-0.0547972
585.968	0.359179
587.706	0.0585346
589.444	0.423353
591.181	0.441833
592.919	-0.0925789
594.653	0.178096
596.39	0.40282
598.126	0.0523405
599.862	-0.436643
601.595	-0.0755281
603.33	0.398727
605.065	0.364899
606.8	0.444173
608.532	0.0859642
610.266	0.462395
611.999	-0.353639
613.732	-0.0214434
615.463	0.311417
617.196	0.415158
618.928	0.632595
620.66	-0.250403
622.389	-0.356286
624.12	-0.00598145
625.851	0.0469065
627.58	0.146901
629.31	-0.343814
631.04	-0.0325022
632.767	-0.357371
634.497	0.117889
636.223	0.455875
637.952	0.677322
639.68	0.0504761
641.406	0.834188
643.134	0.724545
644.861	0.226308
646.586	0.844079
648.312	-0.0820646
650.037	0.246805
651.762	0.785388
653.486	0.534209
655.211	0.537672
656.936	0.635435
658.659	1.07664
660.383	-0.307357
662.105	0.473563
663.829	0.749661
665.55	-0.029088
667.273	-0.0105152
668.994	0.556004
670.716	0.551933
672.436	0.0242147
674.158	0.0946598
675.877	0.580688
677.598	-0.26143
679.317	0.525666
681.035	0.324345
682.755	0.626374
684.473	0.0280371
686.192	-0.0438871
687.909	0.895482
689.628	0.497572
691.344	0.351996
693.06	0.620172
694.778	0.219313
696.493	0.922537
698.211	1.09422
699.925	0.550663
701.64	0.259005
703.356	0.3341
705.07	0.224408
706.783	0.5043
708.498	0.301601
710.211	1.22141
711.924	0.902951
713.638	1.27074
715.35	0.952065
717.061	0.793709
718.774	0.156721
720.485	1.23039
722.196	0.480758
723.906	1.23407
725.618	1.2812
727.328	1.41868
729.037	0.670347
730.746	0.942906
732.456	0.580265
734.165	0.331222
735.873	0.466974
737.58	1.59645
739.289	0.920076
740.997	0.990091
742.703	0.678767
744.41	1.45031
746.116	0.96295
747.823	1.42273
749.529	1.63682
751.234	0.660671
752.938	1.41827
754.643	1.21065
756.347	1.65768
758.051	1.004
759.756	0.261495
761.459	1.25556
763.162	1.05592
764.865	1.46527
766.567	1.42166
768.269	1.42061
769.97	1.16775
771.671	1.34167
773.372	1.26488
775.073	0.69006
776.773	1.60831
778.473	1.82747
780.174	1.77747
781.874	1.59327
783.573	1.72596
785.271	1.85708
786.97	1.44155
788.668	1.54224
790.365	1.50254
792.063	1.77552
793.76	2.76829
795.456	1.93167
797.153	1.21061
798.847	1.25868
800.543	2.29948
802.238	1.58647
803.933	0.964922
805.628	1.22034
807.322	2.14845
809.017	1.59177
810.71	1.72979
812.404	0.812419
814.097	1.53127
815.79	2.0471
817.483	1.62259
819.173	0.95307
820.865	1.55764
822.556	2.40721
824.248	1.91892
825.939	2.10179
827.629	1.508
829.318	1.49741
831.008	1.53556
832.697	1.80047
834.387	1.53357
836.076	2.42762
837.765	2.13951
839.451	2.38529
841.139	1.62377
842.827	0.882282
844.514	1.01137
846.2	1.45438
847.886	2.03433
849.573	1.79055
851.259	1.50518
852.943	1.42368
854.629	1.47792
856.314	1.26243
857.997	0.954997
859.682	1.40984
861.366	1.63761
863.05	1.77321
864.732	0.802768
866.415	1.92698
868.098	0.570437
869.779	1.37785
871.461	1.37302
873.141	1.0295
874.823	1.20472
876.505	0.725549
878.184	1.19421
879.865	1.39195
881.545	0.911944
883.223	0.430866
884.903	0.806128
886.581	0.660272
888.26	0.94099
889.937	1.42223
891.616	1.02188
893.294	1.07058
894.97	0.285067
896.648	1.25283
898.323	1.3864
900	1.0697
901.675	0.528576
903.351	0.659233
905.026	0.968097
906.701	1.43272
908.375	0.849369
910.05	0.869777
911.723	0.313017
913.398	1.09167
915.07	0.270732
916.742	0.782295
918.415	1.02683
920.087	0.872553
921.76	1.11749
923.43	0.391093
925.103	1.19208
926.773	0.714225
928.443	0.879143
930.114	0.295387
931.783	0.440841
933.454	1.04985
935.123	1.26191
936.791	0.702618
938.461	0.695941
940.128	0.514503
941.796	0.864117
943.464	0.442557
945.131	0.859261
946.797	0.722616
948.465	1.04691
950.131	0.220842
951.797	0.7614
953.462	0.485712
955.128	0.454886
956.793	-0.0793171
958.457	0.317059
960.121	0.850022
961.786	0.988221
963.45	0.33057
965.113	0.687127
966.775	0.664094
968.44	0.106102
970.102	0.0541611
971.763	0.443461
973.425	0.479445
975.086	0.340531
976.748	0.469498
978.409	-0.0188494
980.069	0.0355387
981.729	0.0893784
983.388	1.19292
985.048	1.00976
986.708	0.358858
988.367	0.745667
990.025	0.400662
991.683	0.16562
993.341	0.482776
994.998	0.733458
996.655	0.873693
998.312	1.14599
999.969	1.08708
1001.62	1.86444
1003.28	1.27572
1004.94	0.753298
1006.59	0.736831
1008.25	0.457063
1009.9	-0.0851908
1011.56	0.2291
1013.21	0.28062
1014.86	0.2669
1016.52	0.253748
1018.17	0.0443954
1019.82	-0.513587
1021.48	0.263878
1023.13	0.758265
1024.78	0.46707
1026.43	0.810444
1028.08	0.825988
1029.73	0.0978212
1031.38	0.307367
1033.03	0.820116
1034.68	0.828137
1036.33	-0.190507
1037.98	-0.533423
1039.63	0.908948
1041.28	0.153291
1042.93	0.617739
1044.57	0.106499
1046.22	0.336802
1047.87	0.200466
1049.52	0.348752
1051.16	-0.413458
1052.81	-0.197225
1054.45	-0.00214767
1056.1	0.627696
1057.75	0.300845
1059.39	0.299308
1061.04	0.55778
1062.68	0.836884
1064.32	0.0926781
1065.97	-0.304996
1067.61	-0.160658
1069.25	0.720898
1070.9	0.558436
1072.54	-0.125015
1074.18	-0.481756
1075.82	-0.294574
1077.47	1.30394
1079.11	0.0414686
1080.75	-0.113936
1082.39	-0.226029
1084.03	0.462865
1085.67	0.932383
1087.31	0.0985546
1088.95	0.0421886
1090.59	0.39451
1092.22	-0.422687
1093.86	0.164592
1095.5	-0.0903578
1097.14	1.31606
1098.78	0.848339
1100.41	1.18034
1102.05	0.847807
1103.69	0.410549
1105.32	-0.734492
1106.96	0.379742
1108.59	0.0739355
1110.23	0.175153
1111.86	-0.327721
1113.5	-0.295379
1115.13	0.529481
1116.77	0.387026
1118.4	1.03812
1120.03	0.789569
1121.67	0.692667
1123.3	-0.0446415
1124.93	-0.330703
1126.56	0.347092
1128.19	0.769062
1129.83	0.742913
1131.46	-0.329962
1133.09	0.00863647
1134.72	-0.0377941
1136.35	-0.0851507
1137.98	-0.155351
1139.61	-0.141789
1141.24	0.0838327
1142.86	0.308514
1144.49	-0.31994
1146.12	0.246982
1147.75	-0.527741
1149.38	0.339666
1151	-0.028079
1152.63	0.179277
1154.26	0.0879593
1155.88	0.102516
1157.51	0.223252
1159.14	0.0679541
1160.76	-0.107306
1162.39	-0.0257874
1164.01	0.248493
1165.63	0.969975
1167.26	0.330257
1168.88	0.496878
1170.51	0.512125
1172.13	-0.410265
1173.75	0.130751
1175.38	-0.221779
1177	0.231026
1178.62	-0.46038
1180.24	0.0778465
1181.86	0.44742
1183.48	0.267836
1185.1	-0.460908
1186.72	0.351273
1188.34	0.611252
1189.96	-0.228174
1191.58	-0.184331
1193.2	-0.184798
1194.82	0.212448
1196.44	-0.0831881
1198.06	0.146736
1199.68	-0.0187206
1201.29	1.09406
1202.91	0.121254
1204.53	0.321991
1206.14	0.567421
1207.76	0.105373
1209.38	-0.335364
1210.99	0.703602
1212.61	0.0923872
1214.22	0.353634
1215.84	0.569592
1217.45	0.345655
1219.07	0.18303
1220.68	0.58104
1222.29	0.958536
1223.91	0.798526
1225.52	1.05512
1227.13	0.858456
1228.74	0.374526
1230.36	1.73295
1231.97	1.48015
1233.58	1.312
1235.19	1.10445
1236.8	1.3741
1238.41	2.07953
1240.02	1.71102
1241.63	1.59081
1243.24	1.4493
1244.85	0.437452
1246.46	0.541331
1248.07	1.2231
1249.67	1.09671
1251.28	1.23883
1252.89	1.81564
1254.5	1.44204
1256.1	1.15284
1257.71	1.27922
1259.32	1.46948
1260.92	1.4956
1262.53	1.23254
1264.13	1.40431
1265.74	1.43051
1267.34	1.26903
1268.95	1.45847
1270.55	1.52194
1272.15	0.775149
1273.76	0.690326
1275.36	1.20516
1276.97	1.75975
1278.57	1.77412
1280.17	1.47692
1281.77	1.7797
1283.37	1.68933
1284.97	0.958836
1286.58	1.63592
1288.18	1.15684
1289.78	1.98121
1291.38	1.64901
1292.98	1.99853
1294.58	1.66502
1296.18	2.30026
1297.78	2.29251
1299.37	1.76631
1300.97	1.79504
1302.57	2.11015
1304.17	1.86752
1305.77	2.09704
1307.36	1.91455
1308.96	1.81399
1310.55	2.20549
1312.15	1.90074
1313.75	1.90454
1315.34	2.05294
1316.94	2.52921
1318.53	2.98525
1320.13	2.25795
1321.72	2.36542
1323.32	2.30737
1324.91	2.65313
1326.5	1.83868
1328.1	2.18102
1329.69	2.52335
1331.28	3.19108
1332.87	2.36605
1334.47	2.5757
1336.06	2.48501
1337.65	3.08097
1339.24	2.04244
1340.83	1.86865
1342.42	1.79238
1344.01	1.97442
1345.6	1.75282
1347.19	2.45435
1348.78	2.19569
1350.37	1.60126
1351.96	2.29167
1353.54	2.225
1355.13	2.0605
1356.72	1.35712
1358.31	2.65104
1359.89	1.60619
1361.48	1.31899
1363.07	1.58931
1364.65	1.16105
1366.24	1.82947
1367.82	1.54261
1369.41	1.51669
1370.99	1.19448
1372.58	1.92912
1374.16	1.57105
1375.75	1.3334
1377.33	0.996355
1378.91	1.37486
1380.5	0.816579
1382.08	1.62905
1383.66	1.42484
1385.25	0.940956
1386.83	0.496574
1388.41	1.18472
1389.99	1.61525
1391.57	2.32468
1393.15	1.22976
1394.73	1.08791
1396.31	1.18376
1397.89	1.00091
1399.47	1.47052
1401.05	0.908358
1402.63	0.880317
1404.21	1.50511
1405.78	1.79393
1407.36	1.17468
1408.94	1.28826
1410.52	1.24452
1412.1	0.608314
1413.67	1.39283
1415.25	1.05064
1416.82	1.00328
1418.4	1.34957
1419.98	0.612597
1421.55	1.27595
1423.13	1.98066
1424.7	1.29031
1426.28	1.25151
1427.85	1.43002
1429.42	1.48997
1431	2.55222
1432.57	1.46738
1434.14	1.69959
1435.71	1.97031
1437.29	1.67104
1438.86	1.47138
1440.43	1.92193
1442	1.9219
1443.57	2.7091
1445.14	2.55361
1446.71	2.49665
1448.28	1.85023
1449.85	1.91188
1451.42	2.87878
1452.99	1.4869
1454.56	3.06537
1456.13	2.32272
1457.7	1.81482
1459.26	2.17073
1460.83	1.83505
1462.4	3.01134
1463.97	2.55184
1465.54	1.95341
1467.1	1.47293
1468.67	1.73959
1470.23	1.59532
1471.8	1.19792
1473.36	1.60651
1474.93	0.192492
1476.49	0.426462
1478.06	0.856571
1479.62	1.6001
1481.19	1.4417
1482.75	0.891264
1484.31	0.830606
1485.88	1.47463
1487.44	1.21619
1489	0.994938
1490.56	0.810094
1492.13	0.328822
1493.69	0.80212
1495.25	0.530276
1496.81	0.880916
1498.37	0.276838
1499.93	-0.130529
1501.49	0.415847
1503.05	1.15676
1504.61	0.754541
1506.17	0.779266
1507.73	1.07368
1509.28	-0.102347
1510.84	0.748456
1512.4	0.131289
1513.96	0.0924587
1515.52	1.05347
1517.07	0.669251
1518.63	0.574781
1520.19	0.692132
1521.74	0.25465
1523.3	0.658528
1524.85	1.04111
1526.41	0.868198
1527.96	0.618073
1529.52	1.22337
1531.07	0.289038
1532.63	1.21619
1534.18	0.873647
1535.73	0.930751
1537.29	0.252417
1538.84	0.350359
1540.39	1.12749
1541.94	0.886015
1543.5	1.09648
1545.05	0.948993
1546.6	1.21463
1548.15	0.710186
1549.7	1.23758
1551.25	0.809285
1552.8	1.28051
1554.35	1.04223
1555.9	1.0867
1557.45	1.24594
1559	1.35223
1560.55	0.883243
1562.1	0.901882
1563.65	2.06032
1565.19	1.76455
1566.74	1.15159
1568.29	1.80723
1569.83	2.14506
1571.38	1.86629
1572.93	2.33371
1574.47	1.53152
1576.02	2.01743
1577.56	2.44772
1579.11	2.20666
1580.66	1.98527
1582.2	2.32542
1583.74	2.27485
1585.29	2.76747
1586.83	1.89648
1588.38	1.82926
1589.92	2.90308
1591.46	2.27352
1593.01	2.20448
1594.55	3.09019
1596.09	1.953
1597.63	2.80251
1599.17	2.1538
1600.71	1.88087
1602.25	2.45303
1603.79	2.44359
1605.34	3.3911
1606.88	2.26961
1608.41	2.36603
1609.95	1.42487
1611.49	1.90827
1613.03	2.36927
1614.57	1.90796
1616.11	1.91543
1617.65	1.68004
1619.18	1.89646
1620.72	2.19009
1622.26	1.88669
1623.79	1.86555
1625.33	1.20799
1626.87	1.37285
1628.4	0.955567
1629.94	1.30311
1631.48	2.0037
1633.01	1.75028
1634.55	1.46035
1636.08	1.89968
1637.61	2.0231
1639.15	1.84914
1640.68	2.30898
1642.21	1.59375
1643.75	1.77112
1645.28	2.15099
1646.81	2.58459
1648.34	1.82788
1649.88	2.00132
1651.41	1.60093
1652.94	2.5013
1654.47	2.03081
1656	1.87677
1657.53	2.5935
1659.06	1.65999
1660.59	2.81696
1662.12	3.02659
1663.65	1.81061
1665.18	2.49796
1666.71	1.89304
1668.24	2.48954
1669.76	2.16628
1671.29	1.97481
1672.82	1.58268
1674.35	1.65185
1675.87	1.53647
1677.4	1.291
1678.93	1.19112
1680.45	0.942559
1681.98	1.72201
1683.5	1.28806
1685.03	0.744687
1686.55	1.76134
1688.08	1.40293
1689.6	0.404428
1691.13	0.926972
1692.65	1.17461
1694.17	1.05607
1695.7	0.553449
1697.22	0.635631
1698.74	1.02758
1700.27	0.159138
1701.79	0.567583
1703.31	0.0450964
1704.83	0.961073
1706.35	0.983276
1707.87	0.641406
1709.39	-0.154095
1710.91	0.467385
1712.43	-0.0904779
1713.95	0.82028
1715.47	0.100462
1716.99	0.738226
1718.51	-0.125268
1720.03	0.168201
1721.55	0.154733
1723.07	0.286426
1724.58	0.0412083
1726.1	-0.309677
1727.62	-0.514173
1729.13	0.452615
1730.65	0.196044
1732.17	0.084157
1733.68	-0.237584
1735.2	0.397873
1736.72	0.211736
1738.23	0.287636
1739.74	-0.215646
1741.26	-0.265678
1742.77	0.482531
1744.29	0.464555
1745.8	-0.0573273
1747.32	0.266965
1748.83	-0.251782
1750.34	0.230894
1751.85	0.076827
1753.37	0.0847788
1754.88	0.460005
1756.39	0.140943
1757.9	-0.38305
1759.41	-0.395525
1760.92	0.0735874
1762.44	0.0248537
1763.95	0.00911903
1765.46	0.374219
1766.96	0.14957
1768.47	0.266655
1769.98	-0.217254
1771.49	0.0328169
1773	0.407504
1774.51	-0.311819
1776.02	0.450555
1777.53	-0.0193853
1779.03	-0.193612
1780.54	-0.525785
1782.05	-0.30801
1783.55	-0.152111
1785.06	0.344407
1786.57	0.440561
1788.07	0.367742
1789.58	0.65006
1791.08	-0.00667
1792.59	-0.188169
1794.09	0.246059
1795.6	0.111776
1797.1	0.338755
1798.61	-0.0220947
1800.11	0.183073
1801.61	0.165364
1803.12	-0.017251
1804.62	0.399584
1806.12	0.249194
1807.62	0.51527
1809.12	0.395295
1810.63	0.494761
1812.13	0.253438
1813.63	0.0887432
1815.13	0.1298
1816.63	0.18083
1818.13	0.313528
1819.63	0.273432
1821.13	0.581723
1822.63	0.164151
1824.13	0.372941
1825.63	0.243499
1827.13	-0.271828
1828.62	-0.0964308
1830.12	0.104407
1831.62	0.0216255
1833.12	0.0475149
1834.61	-0.170067
1836.11	0.426635
1837.61	-0.0616379
1839.1	0.0542994
1840.6	-0.017046
1842.09	0.122348
1843.59	0.447704
1845.09	0.105743
1846.58	0.0852795
1848.08	0.273926
1849.57	0.223892
1851.06	0.167937
1852.56	0.351199
1854.05	-0.167425
1855.54	0.0451546
1857.04	-0.174898
1858.53	0.191339
1860.02	0.258211
1861.51	0.537161
1863.01	0.355673
1864.5	0.103817
1865.99	0.576127
1867.48	-0.435499
1868.97	0.180907
1870.46	-0.00704956
1871.95	0.0504799
1873.44	0.0405483
1874.93	0.705973
1876.42	-0.153053
1877.91	0.137807
1879.4	-0.0963812
1880.89	0.246139
1882.37	-0.258731
1882.46	-0.295212
1883.95	0.205189
1885.45	-0.114964
1886.94	0.399909
1888.43	-0.200681
1889.93	0.313108
1891.42	0.393084
1892.91	0.0755424
1894.41	0.351954
1895.9	-0.238594
1897.39	0.285011
1898.88	0.0955505
1900.37	-0.356382
1901.86	-0.149617
1903.36	0.332719
1904.85	-0.317457
1906.34	-0.047368
1907.83	-0.0381336
1909.32	0.0587521
1910.81	0.052846
1912.29	-0.107805
1913.78	-0.146105
1915.27	-0.374962
1916.76	0.574727
1918.25	0.0498762
1919.74	-0.00752449
1921.23	0.108154
1922.71	0.276291
1924.2	-0.0564032
1925.69	0.287827
1927.17	0.235525
1928.66	0.0976753
1930.15	0.0637016
1931.63	0.149796
1933.12	-0.580077
1934.6	-0.100465
1936.09	0.134031
1937.57	0.0724821
1939.06	0.217607
1940.54	0.742826
1942.02	-0.301751
1943.51	0.208794
1944.99	0.323667
1946.47	0.111546
1947.96	0.502429
1949.44	-0.0900145
1950.92	0.0397606
1952.4	-0.520313
1953.88	0.22636
1955.37	-0.574709
1956.85	0.325937
1958.33	-0.0778666
1959.81	0.154585
1961.29	0.267648
1962.77	0.0724344
1964.25	0.0998564
1965.73	0.212139
1967.21	0.665578
1968.69	0.433241
1970.16	-0.227036
1971.64	-0.118162
1973.12	0.297683
1974.6	0.201382
1976.08	0.00321674
1977.55	0.435818
1979.03	0.357339
1980.51	0.108828
1981.98	0.285363
1983.46	0.0875139
1984.94	0.0421953
1986.41	0.403618
1987.89	-0.0151386
1989.36	-0.0263834
1990.84	0.234146
1992.31	0.309724
1993.79	-0.103484
1995.26	0.346764
1996.73	0.0371761
1998.21	-0.120224
1999.68	-0.126196
2001.15	0.288822
2002.63	-0.123791
2004.1	0.72814
2005.57	0.16432
2007.04	0.545334
2008.51	-0.116444
2009.99	-0.0863333
2011.46	0.281251
2012.93	-0.0243855
2014.4	0.477234
2015.87	0.489563
2017.34	0.651845
2018.81	0.274734
2020.28	-0.069273
2021.75	0.057045
2023.21	0.552987
2024.68	0.563108
2026.15	0.424093
2027.62	0.287349
2029.09	-0.199311
2030.56	-0.281457
2032.02	0.292285
2033.49	0.044631
2034.96	-0.438291
2036.42	0.371423
2037.89	0.424664
2039.36	0.460506
2040.82	0.126427
2042.29	0.0281553
2043.75	-0.203625
2045.22	-0.0808754
2046.68	0.329351
2048.14	0.319411
2049.61	-0.129173
2051.07	-0.276146
2052.54	0.0130196
2054	0.55253
2055.46	0.566503
2056.93	0.49399
2058.39	0.116927
2059.85	-0.108535
2061.31	-0.164866
2062.77	-0.421962
2064.23	0.0967045
2065.7	0.482141
2067.16	0.616464
2068.62	-0.207596
2070.08	0.55096
2071.54	0.4849
2073	0.351274
2074.46	0.318255
2075.92	0.0826483
2077.38	0.435885
2078.83	-0.423962
2080.29	0.449999
2081.75	0.346414
2083.21	-0.263136
2084.67	0.48959
2086.12	-0.222818
2087.58	0.207788
2089.04	0.250813
2090.49	0.209477
2091.95	0.621369
2093.41	-0.00765133
2094.86	-0.30095
2096.32	-0.0247793
2097.77	0.585033
2099.23	0.423097
2100.68	0.244157
2102.14	1.21879
2103.59	0.540135
2105.05	0.264841
2106.5	0.692652
2107.95	0.121154
2109.41	0.85117
2110.86	-0.153677
2112.31	0.223319
2113.76	0.66396
2115.21	0.369281
2116.67	0.239905
2118.12	0.27727
2119.57	0.565508
2121.02	0.60748
2122.47	0.768535
2123.92	0.649941
2125.37	1.01331
2126.82	0.480978
2128.27	0.941897
2129.72	0.306761
2131.17	0.481741
2132.62	0.522843
2134.07	0.117123
2135.51	0.357818
2136.96	0.286416
2138.41	0.812739
2139.86	0.713921
2141.31	0.386196
2142.75	0.738088
2144.2	0.578453
2145.65	0.50169
2147.09	1.07016
2148.54	1.42277
2149.98	1.55886
2151.43	0.931252
2152.87	1.46185
2154.32	1.37808
2155.76	1.16102
2157.21	0.993784
2158.65	1.42394
2160.1	0.862211
2161.54	0.733757
2162.98	1.45352
2164.43	1.28071
2165.87	1.24187
2167.31	0.638045
2168.75	0.962863
2170.2	1.31861
2171.64	0.706476
2173.08	1.18919
2174.52	1.00432
2175.96	0.984863
2177.4	1.21507
2178.84	0.615084
2180.28	1.44641
2181.72	1.21509
2183.16	1.61658
2184.6	1.48643
2186.04	0.774103
2187.48	1.05989
2188.92	0.46382
2190.36	1.11591
2191.79	0.952084
2193.23	0.986916
2194.67	1.25284
2196.11	0.999876
2197.54	1.32633
2198.98	1.79933
2200.42	1.32285
2201.85	1.02939
2203.29	1.23505
2204.72	0.18196
2206.16	0.888322
2207.59	0.865994
2209.03	0.644734
2210.46	0.803222
2211.9	0.645695
2213.33	0.536781
2214.77	0.923314
2216.2	1.0956
2217.63	0.642519
2219.07	0.653525
2220.5	0.25374
2221.93	0.151111
2223.36	1.03606
2224.8	0.534883
2226.23	0.640543
2227.66	0.496831
2229.09	0.564884
2230.52	0.72997
2231.95	0.550175
2233.39	0.0437794
2234.81	0.422586
2236.25	0.737068
2237.67	0.612708
2239.1	0.654603
2240.53	0.634339
2241.96	0.600617
2243.39	0.373163
2244.82	0.766143
2246.25	0.326318
2247.68	0.618097
2249.1	0.335818
2250.53	0.392534
2251.96	0.690562
2253.38	0.0434399
2254.81	0.0152721
2256.24	0.249009
2257.66	0.696934
2259.09	0.0944796
2260.51	0.307777
2261.94	0.557445
2263.36	0.0141106
2264.79	0.689522
2266.21	0.422124
2267.64	0.803953
2269.06	0.533684
2270.49	0.359633
2271.91	0.510339
2273.33	0.563097
2274.76	0.697442
2276.18	0.571475
2277.6	0.592411
2279.02	1.00473
2280.44	-0.0177946
2281.87	0.149657
2283.29	0.219156
2284.71	-0.217127
2286.13	-0.343182
2287.55	0.543545
2288.97	-0.234468
2290.39	-0.0647259
2291.81	0.0565481
2293.23	-0.0181236
2294.65	0.119819
2296.07	0.257756
2297.49	0.2811
2298.91	-0.301604
2300.33	0.410222
2301.74	0.172102
2303.16	0.44278
2304.58	1.04228
2306	0.197099
2307.41	-0.0908012
2308.83	0.294181
2310.25	0.0701361
2311.66	0.585504
2313.08	-0.560728
2314.5	0.185695
2315.91	0.472748
2317.33	0.052887
2318.74	0.144305
2320.16	0.400454
2321.57	0.539689
2322.98	0.0654411
2324.4	0.478731
2325.81	0.904799
2327.23	0.684624
2328.64	0.446898
2330.05	0.473211
2331.46	-0.404659
2332.88	0.201066
2334.29	-0.0807304
2335.7	0.444111
2337.11	-0.265436
2338.52	-0.0224276
2339.94	0.465096
2341.35	0.474303
2342.76	0.220069
2344.17	0.0480967
2345.58	0.155362
2346.99	0.0991478
2348.4	0.0758095
2349.81	-0.209807
2351.22	-0.00577831
2352.62	-0.211896
2354.03	0.0214701
2355.44	0.579289
2356.85	0.467753
2358.26	0.210004
2359.67	-0.258258
2361.07	0.832786
2362.48	0.527127
2363.89	0.270547
2365.29	0.0791206
2366.7	-0.0954647
2368.11	0.118693
2369.51	-0.14991
2370.92	-0.0614491
2372.32	-0.293262
2373.73	0.0564423
2375.13	0.309906
2376.54	-0.386655
2377.94	-0.00670052
2379.35	0.338244
2380.75	0.23048
2382.15	0.0886116
2383.56	0.121778
2384.96	0.890265
2386.36	0.395303
2387.76	-0.0971508
2389.17	-0.156267
2390.57	-0.324879
2391.97	0.0339355
2393.37	0.314336
2394.77	0.70711
2396.17	0.146821
2397.58	0.30312
2398.98	0.174253
2400.38	0.0938873
2401.78	0.411151
2403.18	0.0455122
2404.58	-0.130006
2405.97	-0.703554
2407.37	0.356254
2408.77	-0.0928221
2410.17	0.329832
2411.57	-0.325001
2412.97	-0.0753365
2414.37	-0.156388
2415.76	0.0181351
2417.16	0.163082
2418.56	0.499545
2419.95	0.488343
2421.35	0.0968208
2422.75	0.385859
2424.14	0.436861
2425.54	0.297784
2426.93	-0.0148888
2428.33	-0.215405
2429.72	-0.0656862
2431.12	0.259811
2432.51	0.331906
2433.91	0.498582
2435.3	0.886039
2436.7	0.047822
2438.09	0.255733
2439.48	0.731566
2440.88	0.141665
2442.27	0.630731
2443.66	-0.213992
2445.05	0.289929
2446.44	-0.0788345
2447.84	-0.209769
2449.23	0.0237064
2450.62	0.383986
2452.01	-0.125723
2453.4	0.014843
2454.79	0.425629
2456.18	0.173046
2457.57	-0.221314
2458.96	0.317362
2460.35	0.333159
2461.74	0.648083
2463.13	0.360914
2464.52	-0.100796
2465.91	-0.420485
2467.29	0.475439
2468.68	-0.317825
2470.07	0.292974
2471.46	-0.0433149
2472.85	0.234113
2474.23	0.100659
2475.62	0.328164
2477.01	0.633276
2478.39	0.0268908
2479.78	0.0494242
2481.16	-0.147332
2482.55	0.376861
2483.93	0.0541191
2485.32	0.575168
2486.7	0.0309362
2488.09	-0.170495
2489.47	0.157259
2490.86	0.157039
2492.24	-0.277686
2493.62	0.190842
2495.01	0.14859
2496.39	-0.310105
2497.77	-0.0697317
2499.15	0.000507355
2500.54	-0.223713
2501.92	-0.263308
2503.3	-0.211675
2504.68	-0.0844154
2506.06	0.65793
2507.45	-0.156333
2508.83	0.122959
2510.21	-0.181305
2511.59	-0.345884
2512.97	0.257489
2514.35	0.156653
2515.73	-0.126333
2517.11	0.0664778
2518.48	0.0917759
2519.86	-0.27996
2521.24	-0.0254841
2522.62	0.181911
2524	-0.115627
2525.38	-0.261445
2526.75	0.125516
2528.13	0.421146
2529.51	0.413952
2530.89	-0.365855
2532.26	-0.124448
2533.64	-0.00252151
2535.02	-0.12251
2536.39	0.410769
2537.77	0.927773
2539.14	0.273595
2540.52	0.256102
2541.89	-0.171796
2543.27	0.235474
2544.64	0.158429
2546.01	0.204685
2547.39	0.328748
2548.76	-0.016077
2550.14	-0.148367
2551.51	0.371178
2552.88	0.631351
2554.25	-0.0206938
2555.63	0.251508
2557	0.79568
2558.37	-0.207356
2559.74	0.488397
2561.11	-0.0429716
2562.49	-0.13368
2563.86	0.200866
2565.23	0.172417
2566.6	0.220153
2567.97	0.0407248
2569.34	0.149269
2570.71	-0.0604658
2572.08	0.214887
2573.45	0.26303
2574.82	0.371981
2576.18	0.1778
2577.55	0.347376
2578.92	0.289185
2580.29	-0.0273314
2581.66	0.504628
2583.02	0.0807467
2584.39	0.171993
2585.76	-0.055191
2587.13	0.0816135
2588.49	0.355101
2589.86	0.310511
2591.22	-0.446462
2592.59	0.144542
2593.96	-0.235415
2595.32	0.140446
2596.69	0.0451174
2598.05	0.402454
2599.42	0.15396
2600.78	0.570758
2602.14	0.0817547
2603.51	0.0471649
2604.87	-0.212824
2606.23	-0.21584
2607.6	0.429088
2608.96	0.243182
2610.32	-0.0197468
2611.69	-0.0736866
2613.05	0.261563
2614.41	-0.0660582
2615.77	-0.0933399
2617.13	0.554361
2618.49	0.168363
2619.86	0.323027
2621.22	-0.164325
2622.58	0.0222931
2623.94	0.149322
2625.3	0.201513
2626.66	0.208508
2628.02	0.0510454
2629.37	0.354928
2630.73	-0.0264082
2632.09	0.127866
2633.45	0.786883
2634.81	0.613612
2636.17	-0.0784931
2637.53	0.386348
2638.88	0.495165
2640.24	-0.23926
2641.6	0.96454
2642.96	-0.226226
2644.31	0.415606
2645.67	0.422075
2647.02	0.41317
2648.38	0.77142
2649.74	0.877505
2651.09	0.482353
2652.45	0.322438
2653.8	0.265874
2655.16	-0.141203
2656.51	0.186454
2657.86	0.910706
2659.22	-0.602578
2660.57	-0.00809002
2661.93	0.147197
2663.28	0.184544
2664.63	0.614667
2665.98	0.328218
2667.34	0.143434
2668.69	0.235448
2670.04	0.662398
2671.39	0.231719
2672.75	0.0351458
2674.09	0.493321
2675.45	0.48748
2676.8	0.322995
2678.15	0.101692
2679.5	0.026845
2680.85	0.127648
2682.2	0.86829
2683.55	0.20451
2684.9	-0.269413
2686.25	0.272828
2687.6	0.249226
2688.94	0.354414
2690.29	0.660164
2691.64	0.222585
2692.99	0.667801
2694.34	0.864425
2695.68	0.437281
2697.03	-0.118842
2698.38	0.514932
2699.73	-0.021656
2701.07	0.110664
2702.42	0.100613
2703.76	0.498014
2705.11	0.447254
2706.45	0.237018
2707.8	-0.22049
2709.15	0.221018
2710.49	0.0668545
2711.83	0.159114
2713.18	0.0332451
2714.52	0.168832
2715.87	0.159019
2717.21	0.323523
2718.55	0.182216
2719.9	0.0257215
2721.24	0.406933
2722.58	0.0597315
2723.93	1.03628
2725.27	-0.0693007
2726.61	0.338287
2727.95	0.308702
2729.29	0.409701
2730.63	0.976058
2731.98	0.0582542
2733.32	0.159097
2734.66	0.245658
2736	0.230727
2737.34	-0.336633
2738.68	0.506742
2740.02	0.389857
2741.36	0.15593
2742.7	0.0373611
2744.03	0.092145
2745.37	0.102313
2746.71	0.445779
2748.05	0.84669
2749.39	0.405792
2750.72	0.0816126
2752.06	0.0335569
2753.4	0.362735
2754.74	0.170403
2756.07	0.702617
2757.41	0.539761
2758.75	0.218173
2760.08	0.0855055
2761.42	0.0404911
2762.76	-0.0182056
2764.09	0.415586
2765.42	0.256152
2766.76	0.370929
2768.09	-0.0509672
2769.43	-0.0986958
2770.76	-0.134225
2772.1	0.0736418
2773.43	0.0919237
2774.76	-0.092576
2776.1	0.212886
2777.43	-0.215592
2778.76	0.0909157
2780.1	0.110407
2781.43	0.345826
2782.76	-0.122131
2784.09	0.256633
2785.42	0.763837
2786.75	-0.0327435
2788.09	-0.340858
2789.42	0.09657
2790.75	0.506466
2792.08	0.00231838
2793.41	-0.314962
2794.74	0.13977
2796.07	0.322299
2797.4	0.118176
2798.73	0.54154
2800.06	0.792571
2801.39	-0.0983191
2802.71	0.380157
2804.04	0.102436
2805.37	0.0949478
2806.7	0.470813
2808.03	0.162392
2809.35	-0.259973
2810.68	-0.0852242
2812.01	0.0334167
2813.33	0.139509
2814.66	-0.191677
2815.99	-0.180181
2817.31	-0.365313
2818.64	0.159205
2819.96	0.0884953
2821.29	0.087966
2822.61	-0.112016
2823.94	-0.00121975
2825.26	0.123106
2826.59	-0.0357971
2827.91	0.0751791
2829.23	0.31443
2830.56	0.540253
2831.88	0.157743
2833.21	0.327238
2834.53	0.312234
2835.85	0.112493
2837.17	0.110071
2838.5	0.474759
2839.82	0.556077
2841.14	1.24544
2842.46	1.14358
2843.78	1.52332
2845.1	1.93245
2846.42	1.22616
2847.74	1.36843
2849.06	1.68038
2850.38	1.63854
2851.71	1.65248
2853.03	1.79279
2854.34	1.98897
2855.66	1.52073
2856.98	1.73068
2858.3	1.92652
2859.62	1.74098
2860.94	1.96474
2862.26	2.42792
2863.57	2.28342
2864.89	2.50542
2866.21	2.74136
2867.53	2.6532
2868.84	2.76316
2870.16	3.05704
2871.48	3.3511
2872.79	3.48964
2874.11	3.71151
2875.42	3.39631
2876.74	3.12186
2878.05	3.40924
2879.37	3.63955
2880.68	3.85602
2882	3.68016
2883.31	3.75893
2884.63	2.98271
2885.94	2.93779
2887.26	3.17375
2888.57	3.49316
2889.88	3.32023
2891.19	3.28635
2892.51	3.25154
2893.82	3.60872
2895.13	3.50402
2896.44	3.12067
2897.76	4.11052
2899.07	3.28272
2900.38	3.64548
2901.69	4.5405
2903	3.79918
2904.31	4.17713
2905.62	4.51353
2906.93	4.12342
2908.24	5.17535
2909.55	4.71786
2910.86	4.91883
2912.17	5.03594
2913.48	5.16596
2914.79	5.12588
2916.1	5.36315
2917.41	5.06605
2918.71	5.3272
2920.02	6.11934
2921.33	5.69553
2922.64	5.83298
2923.94	6.36393
2925.25	5.5967
2926.56	5.6971
2927.86	5.46211
2929.17	6.72244
2930.48	6.93342
2931.78	6.33283
2933.09	6.52866
2934.39	6.52872
2935.7	6.87834
2937	6.37572
2938.31	5.92934
2939.61	5.9585
2940.92	5.77883
2942.22	5.65631
2943.53	5.98281
2944.83	5.24904
2946.13	5.00608
2947.43	5.05769
2948.74	5.47295
2950.04	4.92077
2951.34	5.2479
2952.64	4.746
2953.95	4.52204
2955.25	4.17152
2956.55	4.49412
2957.85	4.88966
2959.15	5.05145
2960.45	4.23711
2961.75	4.43423
2963.05	4.67505
2964.35	4.15736
2965.65	4.31115
2966.95	3.49283
2968.25	4.387
2969.55	4.07109
2970.85	4.38774
2972.15	3.83273
2973.45	3.86902
2974.75	3.38453
2976.05	2.80032
2977.34	2.88996
2978.64	3.3572
2979.94	3.23033
2981.24	2.87627
2982.53	3.16853
2983.83	3.12356
2985.13	3.12248
2986.42	2.47738
2987.72	1.52556
2989.01	2.16319
2990.31	2.75922
2991.61	2.20212
2992.9	1.798
2994.19	1.93999
2995.49	1.46205
2996.78	1.16581
2998.08	1.09398
2999.37	1.73792
3000.67	1.30248
3001.96	1.62519
3003.25	0.96747
3004.55	0.814634
3005.84	1.13763
3007.13	1.19345
3008.42	0.814123
3009.72	0.895217
3011.01	1.10072
3012.3	1.33308
3013.59	0.769796
3014.88	0.821373
3016.17	0.344595
3017.46	0.05058
3018.76	-0.0753126
3020.05	0.883854
3021.34	-0.0212603
3022.63	0.44853
3023.92	0.0972195
3025.21	0.410768
3026.49	-0.454028
3027.78	0.510032
3029.07	0.0915174
3030.36	0.15954
3031.65	0.326506
3032.94	1.04727
3034.23	-0.108786
3035.51	-0.285317
3036.8	-0.49122
3038.09	0.443906
3039.38	0.121866
3040.66	0.334035
3041.95	0.557796
3043.23	0.287288
3044.52	0.114606
3045.81	0.245704
3047.09	0.147753
3048.38	0.162901
3049.66	0.195098
3050.95	0.298095
3052.23	0.416078
3053.52	0.493186
3054.8	0.964867
3056.09	0.602628
3057.37	0.743205
3058.65	0.746001
3059.94	0.394245
3061.22	0.778258
3062.5	0.578536
3063.79	0.190835
3065.07	0.25439
3066.35	0.102671
3067.63	0.93152
3068.92	0.550987
3070.2	0.10193
3071.48	0.113906
3072.76	-0.256824
3074.04	0.295065
3075.32	-0.0654488
3076.6	-0.0323753
3077.88	-0.0666418
3079.16	0.10427
3080.44	-0.0752554
3081.72	0.113969
3083	0.128897
3084.28	-0.0857143
3085.56	-0.530993
3086.84	0.420951
3088.12	-0.202675
3089.4	0.0955229
3090.67	-0.0413771
3091.95	-0.300605
3093.23	-0.17974
3094.51	0.633134
3095.78	0.198752
3097.06	-0.370904
3098.34	0.292906
3099.61	-0.0600901
3100.89	0.372607
3102.17	-0.00742912
3103.44	0.317151
3104.72	0.0874023
3105.99	0.143079
3107.27	-0.517042
3108.54	0.0424099
3109.82	-0.0325079
3111.09	0.61171
3112.37	-0.272955
3113.64	0.156772
3114.92	0.383492
3116.19	0.311278
3117.46	0.59024
3118.74	0.297793
3120.01	0.0984621
3121.28	0.331512
3122.55	0.0483942
3123.83	1.0791
3125.1	0.470762
3126.37	0.499763
3127.64	0.231977
3128.91	0.614397
3130.19	0.145331
3131.46	0.582327
3132.73	0.59992
3134	-0.207044
3135.27	0.794889
3136.54	0.620915
3137.81	0.39235
3139.08	0.352068
3140.35	0.849907
3141.62	0.271054
3142.89	-0.0779495
3144.16	0.0845165
3145.42	0.703762
3146.69	0.853973
3147.96	0.656723
3149.23	0.420463
