200.523	0.0399303
202.339	0.0626326
204.154	0.0863943
205.967	0.0866823
207.781	-0.15591
209.596	-0.325862
211.409	0.450503
213.222	-0.280136
215.034	0.00788879
216.848	0.343454
218.659	-0.169086
220.47	0.0215101
222.281	0.333654
224.091	0.259479
225.903	0.475903
227.713	0.0882521
229.522	0.207615
231.331	0.398732
233.14	0.131039
234.948	0.322055
236.756	0.176659
238.566	-0.135416
240.373	0.35019
242.18	0.30763
243.986	0.000873566
245.792	0.32122
247.598	0.6403
249.403	0.594675
251.208	-0.0334253
253.013	-0.18105
254.818	-0.281874
256.624	0.0269156
258.427	0.239741
260.231	0.598501
262.034	-0.31778
263.836	0.574235
265.638	0.118103
267.44	0.794793
269.242	0.675936
271.043	-0.311729
272.844	0.338873
274.645	0.0478411
276.445	-0.847276
278.245	0.0878468
280.044	0.297763
281.843	0.1926
283.642	0.278226
285.44	-0.0941229
287.238	0.853548
289.036	0.504611
290.833	0.157055
292.63	-0.0929747
294.425	0.304541
296.221	0.0574646
298.017	-0.212352
299.813	0.0440378
301.608	-0.0820961
303.403	1.08031
305.198	0.164315
306.992	0.464764
308.786	0.526282
310.579	0.302355
312.371	0.818009
314.163	0.45396
315.956	0.4727
317.748	0.421665
319.54	-0.128287
321.331	0.609393
323.122	0.537704
324.911	0.37083
326.701	0.776904
328.491	0.585907
330.281	0.680882
332.071	-0.0145283
333.857	0.819173
335.646	0.526487
337.434	0.925507
339.222	0.221877
341.008	0.162891
342.795	0.00759315
344.582	0.879774
346.369	1.13074
348.153	-0.0743246
349.939	-0.0608635
351.724	0.69246
353.51	0.514264
355.292	0.430542
357.077	0.250265
358.861	0.0212603
360.643	1.02976
362.426	0.39401
364.21	0.162711
365.99	-0.0688934
367.773	0.387475
369.555	0.296795
371.335	0.276525
373.116	0.184656
374.897	-0.00189209
376.676	0.402124
378.456	0.381308
380.236	-0.0862103
382.014	0.46019
383.793	0.536534
385.57	-0.208789
387.349	0.175532
389.127	0.4666
390.903	0.429599
392.681	0.792585
394.456	0.169759
396.233	0.697994
398.007	0.427797
399.784	0.556675
401.56	0.966983
403.333	0.0378342
405.108	0.0945024
406.881	0.220896
408.656	0.464073
410.428	-0.020834
412.202	-0.130041
413.973	0.62932
415.746	0.380265
417.517	0.131919
419.29	0.0483561
421.06	-0.481005
422.831	-0.54128
424.601	0.0551329
426.37	0.345564
428.141	0.541295
429.909	-0.319738
431.679	0.157164
433.447	-0.35146
435.216	0.290205
436.983	0.415483
438.75	0.751297
440.519	0.381692
442.285	0.0807762
444.052	0.270484
445.818	0.247415
447.583	0.66796
449.349	0.175385
451.114	0.57153
452.878	0.173625
454.643	0.313005
456.407	0.335591
458.169	0.24155
459.934	0.310591
461.696	0.914978
463.458	0.334831
465.222	0.640256
466.983	0.274412
468.744	0.120015
470.507	0.52526
472.267	0.163544
474.027	0.638888
475.787	0.32108
477.548	0.210791
479.307	0.588003
481.065	0.591579
482.823	0.735037
484.583	0.413776
486.341	0.257233
488.098	0.661859
489.855	0.90558
491.612	0.637084
493.37	0.205161
495.126	0.310498
496.881	0.743657
498.636	0.708703
500.391	0.673232
502.148	0.684026
503.902	0.811411
505.656	0.350261
507.409	0.686861
509.162	0.38713
510.915	0.485763
512.668	0.86533
514.42	0.490511
516.174	0.490927
517.925	1.38386
519.676	0.277029
521.427	0.627226
523.178	0.272122
524.928	0.785598
526.678	1.017
528.427	0.826134
530.176	0.588478
531.925	0.631729
533.673	0.510314
535.422	1.20658
537.169	0.521594
538.917	0.606978
540.664	1.2041
542.411	0.56461
544.157	0.507872
545.903	0.125946
547.649	0.255634
549.395	0.176598
551.14	0.190536
552.884	0.366496
554.629	0.519135
556.373	0.440878
558.117	0.570651
559.86	0.539364
561.603	0.324487
563.346	0.685486
565.089	0.862615
566.831	0.649625
568.573	0.299884
570.314	-0.300998
572.053	0.338518
573.794	0.382854
575.534	0.749962
577.274	0.590976
579.014	0.180568
580.754	0.298704
582.493	0.256169
584.23	0.419995
585.968	0.307032
587.706	-0.198213
589.444	-0.15251
591.181	0.0994711
592.919	-0.0401373
594.653	-0.432962
596.39	0.462627
598.126	0.483903
599.862	0.0217075
601.595	0.317945
603.33	0.796901
605.065	0.101739
606.8	0.233218
608.532	-0.0265369
610.266	0.333529
611.999	-0.109194
613.732	0.251637
615.463	0.291903
617.196	0.515551
618.928	0.646929
620.66	0.0675888
622.389	0.494328
624.12	0.75969
625.851	0.750572
627.58	0.468538
629.31	0.416768
631.04	0.891968
632.767	0.159636
634.497	0.31814
636.223	0.522025
637.952	0.65585
639.68	0.969671
641.406	0.93827
643.134	0.745065
644.861	0.48274
646.586	0.0847425
648.312	0.143632
650.037	0.636941
651.762	0.610998
653.486	0.906864
655.211	1.20621
656.936	0.346976
658.659	0.102258
660.383	0.56401
662.105	0.225816
663.829	0.456403
665.55	1.02798
667.273	0.591911
668.994	1.22996
670.716	1.29709
672.436	0.450719
674.158	0.636165
675.877	0.571678
677.598	1.26538
679.317	1.34043
681.035	0.839902
682.755	1.51022
684.473	1.07432
686.192	0.751266
687.909	0.795099
689.628	0.538486
691.344	1.17955
693.06	0.691308
694.778	0.663066
696.493	0.956307
698.211	0.304442
699.925	1.14761
701.64	0.609002
703.356	0.920509
705.07	0.978313
706.783	1.28798
708.498	0.427258
710.211	1.24017
711.924	1.22723
713.638	0.916649
715.35	0.789262
717.061	1.11867
718.774	1.10539
720.485	0.955566
722.196	0.874453
723.906	1.47606
725.618	1.5764
727.328	0.99491
729.037	1.27634
730.746	1.2621
732.456	2.22132
734.165	1.0744
735.873	0.879089
737.58	1.40703
739.289	1.30298
740.997	1.71848
742.703	1.32363
744.41	1.60595
746.116	1.07924
747.823	1.31907
749.529	1.20016
751.234	0.947537
752.938	1.05598
754.643	1.45819
756.347	1.18685
758.051	1.20944
759.756	1.97689
761.459	2.07007
763.162	1.80288
764.865	1.85112
766.567	1.71756
768.269	1.7177
769.97	1.35395
771.671	1.25957
773.372	1.48047
775.073	2.01747
776.773	1.71839
778.473	1.75971
780.174	2.25483
781.874	2.38932
783.573	2.13929
785.271	2.36334
786.97	1.45321
788.668	1.60405
790.365	1.88739
792.063	1.82876
793.76	2.28803
795.456	2.27246
797.153	2.07756
798.847	1.65939
800.543	1.87365
802.238	1.95407
803.933	2.34988
805.628	2.04834
807.322	1.83613
809.017	2.07212
810.71	1.56614
812.404	2.71933
814.097	1.96571
815.79	2.48909
817.483	1.82609
819.173	2.34874
820.865	1.59787
822.556	1.78568
824.248	1.92938
825.939	1.85144
827.629	1.77562
829.318	1.72473
831.008	2.30032
832.697	1.7204
834.387	0.94133
836.076	2.01357
837.765	1.25675
839.451	1.65919
841.139	1.97113
842.827	1.45531
844.514	1.85504
846.2	1.62977
847.886	2.05449
849.573	1.51992
851.259	1.6363
852.943	1.64259
854.629	1.31316
856.314	1.40965
857.997	1.32541
859.682	1.32951
861.366	1.10676
863.05	0.566907
864.732	1.24249
866.415	1.57952
868.098	1.30731
869.779	1.48563
871.461	1.79906
873.141	1.25509
874.823	1.70369
876.505	1.38515
878.184	1.42766
879.865	1.01861
881.545	1.46699
883.223	1.07943
884.903	1.21009
886.581	0.910607
888.26	0.903168
889.937	0.939424
891.616	1.56022
893.294	1.57088
894.97	1.31041
896.648	1.36408
898.323	1.21462
900	1.33374
901.675	1.18301
903.351	0.875494
905.026	2.15524
906.701	0.552805
908.375	1.40705
910.05	0.924053
911.723	0.910066
913.398	1.34118
915.07	0.595064
916.742	0.759845
918.415	1.03505
920.087	0.778482
921.76	1.0759
923.43	1.32969
925.103	0.855692
926.773	1.22289
928.443	1.37065
930.114	1.34294
931.783	1.29382
933.454	0.693463
935.123	1.13011
936.791	0.728982
938.461	1.10058
940.128	0.789597
941.796	0.589912
943.464	1.18515
945.131	1.40531
946.797	0.984287
948.465	0.958852
950.131	0.33583
951.797	1.25642
953.462	1.51487
955.128	0.385547
956.793	0.890617
958.457	1.66358
960.121	0.850725
961.786	0.369507
963.45	0.837971
965.113	0.907351
966.775	0.90795
968.44	0.81748
970.102	0.703003
971.763	0.587812
973.425	0.716362
975.086	0.934669
976.748	0.557527
978.409	0.800989
980.069	0.989852
981.729	1.17843
983.388	0.867686
985.048	0.798621
986.708	1.34737
988.367	1.11974
990.025	0.249906
991.683	0.750618
993.341	0.588014
994.998	0.977528
996.655	0.418075
998.312	0.983705
999.969	0.997568
1001.62	1.9139
1003.28	1.50823
1004.94	0.838917
1006.59	0.697834
1008.25	0.40337
1009.9	0.767915
1011.56	0.649934
1013.21	0.773589
1014.86	1.16029
1016.52	0.802664
1018.17	0.183329
1019.82	0.615063
1021.48	0.675742
1023.13	-0.115054
1024.78	0.537661
1026.43	0.513305
1028.08	0.0301237
1029.73	0.769883
1031.38	0.612755
1033.03	0.650758
1034.68	0.556314
1036.33	1.2456
1037.98	0.604259
1039.63	1.1175
1041.28	0.912835
1042.93	0.948793
1044.57	1.16018
1046.22	0.504467
1047.87	0.350232
1049.52	-0.323761
1051.16	0.0240536
1052.81	0.437851
1054.45	0.308902
1056.1	0.962347
1057.75	0.70275
1059.39	0.203444
1061.04	0.834163
1062.68	0.550944
1064.32	0.506075
1065.97	0.134185
1067.61	0.826437
1069.25	0.0834875
1070.9	0.578373
1072.54	0.356421
1074.18	0.135104
1075.82	0.305295
1077.47	0.541642
1079.11	0.779053
1080.75	0.800293
1082.39	0.496242
1084.03	0.386551
1085.67	1.33757
1087.31	0.444272
1088.95	0.437832
1090.59	0.451466
1092.22	0.59372
1093.86	0.454522
1095.5	-0.137278
1097.14	0.760032
1098.78	0.83868
1100.41	0.595986
1102.05	-0.032032
1103.69	0.0302992
1105.32	-0.121359
1106.96	0.0501051
1108.59	0.28577
1110.23	0.0258675
1111.86	0.710404
1113.5	-0.0463858
1115.13	0.35586
1116.77	0.306552
1118.4	0.193129
1120.03	0.230427
1121.67	0.653991
1123.3	0.521673
1124.93	0.68989
1126.56	0.773255
1128.19	0.386863
1129.83	0.279207
1131.46	0.02244
1133.09	0.0652542
1134.72	-0.041688
1136.35	0.192792
1137.98	-0.0438232
1139.61	-0.0250254
1141.24	-0.284644
1142.86	0.245089
1144.49	-0.142661
1146.12	0.00351715
1147.75	0.0438681
1149.38	0.383224
1151	0.531141
1152.63	-0.151509
1154.26	0.634824
1155.88	0.760577
1157.51	0.0776749
1159.14	0.501531
1160.76	0.351826
1162.39	0.52212
1164.01	0.0767279
1165.63	-0.240656
1167.26	-0.133038
1168.88	0.420081
1170.51	-0.240019
1172.13	0.649513
1173.75	0.878275
1175.38	0.172111
1177	0.759657
1178.62	-0.242118
1180.24	0.13401
1181.86	0.721975
1183.48	0.189379
1185.1	0.481426
1186.72	0.47662
1188.34	0.238227
1189.96	1.0734
1191.58	0.936525
1193.2	0.230926
1194.82	0.471255
1196.44	-0.0647192
1198.06	0.280938
1199.68	0.543676
1201.29	0.348422
1202.91	0.510846
1204.53	1.03027
1206.14	0.675072
1207.76	1.03053
1209.38	0.447456
1210.99	0.218349
1212.61	0.46735
1214.22	0.943296
1215.84	1.00006
1217.45	0.82619
1219.07	0.256918
1220.68	0.954971
1222.29	0.885002
1223.91	0.588445
1225.52	0.314461
1227.13	0.70435
1228.74	0.846939
1230.36	1.0733
1231.97	1.03197
1233.58	0.578457
1235.19	1.13886
1236.8	1.12172
1238.41	1.82912
1240.02	1.19339
1241.63	1.11598
1243.24	1.43129
1244.85	0.959662
1246.46	1.35609
1248.07	1.31701
1249.67	1.17376
1251.28	1.03026
1252.89	1.01114
1254.5	1.46843
1256.1	1.16146
1257.71	1.08317
1259.32	0.985258
1260.92	0.867409
1262.53	1.03982
1264.13	1.17094
1265.74	1.71622
1267.34	1.99163
1268.95	1.22958
1270.55	1.10909
1272.15	1.54741
1273.76	1.25906
1275.36	1.19785
1276.97	1.44661
1278.57	1.44585
1280.17	1.8586
1281.77	1.11171
1283.37	1.5034
1284.97	1.23357
1286.58	1.89506
1288.18	1.54452
1289.78	1.17432
1291.38	1.65189
1292.98	1.55073
1294.58	2.17189
1296.18	1.49036
1297.78	1.32383
1299.37	2.02237
1300.97	1.87321
1302.57	1.99083
1304.17	2.169
1305.77	1.72935
1307.36	2.17317
1308.96	1.46694
1310.55	1.72538
1312.15	2.33166
1313.75	1.71046
1315.34	2.29695
1316.94	1.76051
1318.53	1.8579
1320.13	1.52689
1321.72	1.56215
1323.32	1.73828
1324.91	1.60744
1326.5	1.59736
1328.1	1.54625
1329.69	1.88051
1331.28	1.99313
1332.87	1.84513
1334.47	2.04284
1336.06	1.71728
1337.65	1.23125
1339.24	1.87385
1340.83	1.50686
1342.42	1.33965
1344.01	1.69347
1345.6	1.78445
1347.19	1.6348
1348.78	1.56729
1350.37	1.96259
1351.96	1.59988
1353.54	1.77934
1355.13	1.2804
1356.72	1.52139
1358.31	1.2025
1359.89	1.04267
1361.48	1.36099
1363.07	1.99733
1364.65	1.31687
1366.24	1.23517
1367.82	1.19416
1369.41	1.27379
1370.99	1.33481
1372.58	0.959375
1374.16	1.22175
1375.75	1.70364
1377.33	1.31008
1378.91	1.2145
1380.5	0.879205
1382.08	0.562713
1383.66	1.49801
1385.25	1.06015
1386.83	0.64214
1388.41	0.78069
1389.99	1.43581
1391.57	0.900759
1393.15	1.77522
1394.73	1.65796
1396.31	0.727604
1397.89	1.26396
1399.47	1.4225
1401.05	1.28291
1402.63	1.04395
1404.21	1.22068
1405.78	1.83273
1407.36	1.14062
1408.94	0.983299
1410.52	1.12283
1412.1	1.00552
1413.67	1.00616
1415.25	1.24273
1416.82	1.20218
1418.4	0.8657
1419.98	0.982971
1421.55	1.12083
1423.13	0.984483
1424.7	0.987486
1426.28	1.12941
1427.85	0.799445
1429.42	1.35493
1431	1.37811
1432.57	1.656
1434.14	1.48036
1435.71	1.22575
1437.29	1.63996
1438.86	1.11118
1440.43	2.31303
1442	2.15962
1443.57	1.67281
1445.14	2.30664
1446.71	2.31174
1448.28	2.15975
1449.85	1.90973
1451.42	1.5028
1452.99	2.1779
1454.56	1.75207
1456.13	1.7195
1457.7	2.00115
1459.26	1.92734
1460.83	1.91086
1462.4	2.01057
1463.97	1.9906
1465.54	1.18341
1467.1	1.39822
1468.67	1.57389
1470.23	1.53439
1471.8	1.45678
1473.36	0.889911
1474.93	1.38288
1476.49	0.876144
1478.06	0.546071
1479.62	1.07851
1481.19	1.06194
1482.75	0.9473
1484.31	1.0285
1485.88	1.14852
1487.44	1.16981
1489	0.778713
1490.56	0.503694
1492.13	0.40306
1493.69	0.671785
1495.25	0.782252
1496.81	0.735618
1498.37	0.416487
1499.93	0.662249
1501.49	0.753116
1503.05	0.515196
1504.61	0.452889
1506.17	0.642548
1507.73	0.367167
1509.28	1.03797
1510.84	0.452023
1512.4	0.753172
1513.96	0.668304
1515.52	1.27577
1517.07	0.672897
1518.63	1.03091
1520.19	0.833223
1521.74	0.999685
1523.3	0.687642
1524.85	0.94828
1526.41	0.730685
1527.96	0.436652
1529.52	0.86545
1531.07	0.875327
1532.63	0.525435
1534.18	0.46131
1535.73	1.00349
1537.29	0.921881
1538.84	0.859949
1540.39	0.892769
1541.94	1.15166
1543.5	0.977103
1545.05	1.06591
1546.6	1.07921
1548.15	1.18614
1549.7	1.29281
1551.25	1.53052
1552.8	0.926521
1554.35	1.03471
1555.9	1.08801
1557.45	1.60953
1559	0.695798
1560.55	0.754338
1562.1	1.5978
1563.65	0.987207
1565.19	0.84346
1566.74	1.5022
1568.29	1.50765
1569.83	1.4194
1571.38	1.61077
1572.93	1.39119
1574.47	1.32081
1576.02	1.60514
1577.56	1.81502
1579.11	1.76396
1580.66	1.93757
1582.2	1.77585
1583.74	2.11928
1585.29	1.67876
1586.83	1.61229
1588.38	1.86387
1589.92	1.2921
1591.46	1.54312
1593.01	1.73767
1594.55	2.4378
1596.09	2.1079
1597.63	2.09683
1599.17	1.63642
1600.71	1.77657
1602.25	1.61699
1603.79	1.9079
1605.34	2.46142
1606.88	2.45014
1608.41	1.83535
1609.95	1.53777
1611.49	1.87692
1613.03	1.51905
1614.57	1.57325
1616.11	1.94582
1617.65	1.86856
1619.18	1.49279
1620.72	1.49332
1622.26	1.66365
1623.79	1.57259
1625.33	1.44412
1626.87	1.31496
1628.4	1.74591
1629.94	1.50198
1631.48	1.53765
1633.01	1.87176
1634.55	1.02979
1636.08	1.02903
1637.61	1.66318
1639.15	1.53307
1640.68	1.55216
1642.21	1.77555
1643.75	1.6439
1645.28	1.49264
1646.81	1.34072
1648.34	2.09921
1649.88	2.07717
1651.41	1.81491
1652.94	1.3872
1654.47	1.48003
1656	1.74017
1657.53	1.72214
1659.06	1.81448
1660.59	1.38717
1662.12	1.79146
1663.65	1.8244
1665.18	1.45042
1666.71	1.8894
1668.24	1.64644
1669.76	1.58953
1671.29	1.5525
1672.82	1.18497
1674.35	1.57305
1675.87	1.33475
1677.4	1.05903
1678.93	1.42639
1680.45	1.05698
1681.98	1.09154
1683.5	1.18085
1685.03	0.627876
1686.55	1.52464
1688.08	1.08283
1689.6	0.623545
1691.13	0.769136
1692.65	1.07934
1694.17	0.23686
1695.7	0.857586
1697.22	0.563851
1698.74	0.872741
1700.27	0.980119
1701.79	0.831551
1703.31	0.627993
1704.83	0.3332
1706.35	0.475147
1707.87	1.01653
1709.39	0.358163
1710.91	0.408743
1712.43	-0.138962
1713.95	-0.0515423
1715.47	0.470235
1716.99	0.520823
1718.51	0.498915
1720.03	0.224183
1721.55	0.310893
1723.07	0.379933
1724.58	0.395702
1726.1	0.736729
1727.62	0.718657
1729.13	0.143631
1730.65	0.608953
1732.17	0.389576
1733.68	0.437184
1735.2	0.347394
1736.72	0.209962
1738.23	-0.0168829
1739.74	0.166624
1741.26	0.056428
1742.77	0.1906
1744.29	0.0298824
1745.8	0.234864
1747.32	0.185798
1748.83	0.233155
1750.34	0.0326357
1751.85	0.194171
1753.37	-0.0426388
1754.88	0.39554
1756.39	0.437454
1757.9	-0.261946
1759.41	-0.162454
1760.92	0.119215
1762.44	-0.0179992
1763.95	-0.0487657
1765.46	0.0972052
1766.96	0.630338
1768.47	0.170026
1769.98	0.024437
1771.49	0.22871
1773	0.0210805
1774.51	0.0564394
1776.02	0.0339808
1777.53	-0.0479088
1779.03	0.0419822
1780.54	0.330543
1782.05	-0.0849333
1783.55	0.388902
1785.06	-0.0136399
1786.57	0.0718894
1788.07	0.146961
1789.58	-0.131075
1791.08	0.0776649
1792.59	0.0347013
1794.09	-0.0538607
1795.6	-0.195069
1797.1	-0.0165472
1798.61	-0.155299
1800.11	0.26919
1801.61	0.17627
1803.12	0.139539
1804.62	0.464835
1806.12	-0.00939608
1807.62	-0.0999603
1809.12	0.104276
1810.63	-0.141475
1812.13	0.135758
1813.63	-0.147197
1815.13	-0.0122547
1816.63	0.0349517
1818.13	0.214625
1819.63	0.447481
1821.13	0.186051
1822.63	0.00879478
1824.13	0.0116606
1825.63	0.285301
1827.13	0.321396
1828.62	0.3735
1830.12	0.116206
1831.62	0.0386577
1833.12	0.192849
1834.61	-0.00215101
1836.11	-0.142561
1837.61	-0.0665226
1839.1	0.129701
1840.6	0.220182
1842.09	0.308326
1843.59	0.014286
1845.09	0.0977197
1846.58	0.141477
1848.08	0.0386248
1849.57	0.149129
1851.06	0.153895
1852.56	-0.372128
1854.05	-0.140468
1855.54	-0.118713
1857.04	-0.0374107
1858.53	-0.030931
1860.02	0.017962
1861.51	-0.0390501
1863.01	0.164576
1864.5	0.109312
1865.99	0.129982
1867.48	0.0749502
1868.97	0.0475187
1870.46	0.116197
1871.95	0.239431
1873.44	0.309688
1874.93	0.142992
1876.42	0.160444
1877.91	-0.0278087
1879.4	0.322358
1880.89	0.176104
1882.37	0.0553484
1882.46	0.0491714
1883.95	0.362814
1885.45	-0.00407505
1886.94	0.394984
1888.43	0.253502
1889.93	0.216695
1891.42	0.337272
1892.91	0.389616
1894.41	0.217549
1895.9	0.203329
1897.39	0.224646
1898.88	0.437262
1900.37	-0.012013
1901.86	0.111397
1903.36	0.233242
1904.85	0.127732
1906.34	0.195356
1907.83	0.0371013
1909.32	0.105144
1910.81	0.104521
1912.29	-0.103487
1913.78	0.36549
1915.27	0.192789
1916.76	0.0718913
1918.25	0.435896
1919.74	0.33145
1921.23	0.40018
1922.71	0.0536218
1924.2	0.261963
1925.69	0.488545
1927.17	0.265969
1928.66	0.217086
1930.15	0.220139
1931.63	-0.106501
1933.12	0.0158944
1934.6	-0.0709662
1936.09	0.48098
1937.57	-0.300158
1939.06	-0.11307
1940.54	0.453873
1942.02	0.399582
1943.51	0.122023
1944.99	0.2593
1946.47	0.0348167
1947.96	-0.000130653
1949.44	-0.121798
1950.92	0.255145
1952.4	-0.0746555
1953.88	0.128542
1955.37	0.24545
1956.85	0.465556
1958.33	-0.120669
1959.81	0.289307
1961.29	-0.140824
1962.77	0.0466342
1964.25	0.165262
1965.73	0.0607357
1967.21	0.144007
1968.69	0.32924
1970.16	0.0863771
1971.64	0.202319
1973.12	0.454578
1974.6	-0.299769
1976.08	-0.251825
1977.55	-0.220838
1979.03	-0.138747
1980.51	-0.0227656
1981.98	-0.0600729
1983.46	-0.131541
1984.94	0.0853686
1986.41	-0.241011
1987.89	0.61941
1989.36	-0.180819
1990.84	0.171406
1992.31	0.371761
1993.79	0.319203
1995.26	0.132215
1996.73	0.520138
1998.21	0.0464821
1999.68	-0.0051403
2001.15	-0.242849
2002.63	0.0927229
2004.1	0.528974
2005.57	0.257365
2007.04	-0.266045
2008.51	-0.283178
2009.99	0.222297
2011.46	0.256739
2012.93	-0.062223
2014.4	0.190744
2015.87	0.072823
2017.34	0.139213
2018.81	0.188031
2020.28	-0.200543
2021.75	-0.437711
2023.21	0.148088
2024.68	0.163537
2026.15	0.330931
2027.62	-0.15462
2029.09	0.115859
2030.56	0.186217
2032.02	0.00572968
2033.49	-0.19124
2034.96	-0.153248
2036.42	0.136451
2037.89	0.409064
2039.36	0.462971
2040.82	0.180625
2042.29	0.318816
2043.75	-0.0132456
2045.22	0.244124
2046.68	-0.272044
2048.14	0.424319
2049.61	0.514443
2051.07	0.148549
2052.54	-0.0164962
2054	0.154227
2055.46	0.036787
2056.93	-0.132335
2058.39	-0.0829511
2059.85	0.252581
2061.31	0.386119
2062.77	0.0489407
2064.23	0.217642
2065.7	0.437642
2067.16	-0.0652852
2068.62	0.324255
2070.08	0.495334
2071.54	0.127784
2073	0.147288
2074.46	0.132895
2075.92	0.0845432
2077.38	0.0190387
2078.83	0.104766
2080.29	-0.163507
2081.75	-0.0280943
2083.21	0.460217
2084.67	0.476453
2086.12	0.256529
2087.58	-0.0310111
2089.04	0.0679078
2090.49	0.183344
2091.95	0.0131884
2093.41	-0.0226202
2094.86	0.243277
2096.32	0.240283
2097.77	0.253484
2099.23	0.366543
2100.68	0.562749
2102.14	0.0569782
2103.59	0.587931
2105.05	0.134645
2106.5	0.400327
2107.95	-0.0671105
2109.41	-0.0504341
2110.86	0.432595
2112.31	0.114344
2113.76	0.327916
2115.21	0.306854
2116.67	0.667405
2118.12	0.329916
2119.57	0.558393
2121.02	0.257349
2122.47	0.770834
2123.92	-0.0743694
2125.37	0.341343
2126.82	0.441786
2128.27	0.607679
2129.72	0.689447
2131.17	0.587816
2132.62	0.66766
2134.07	0.581913
2135.51	0.711852
2136.96	0.594989
2138.41	0.87638
2139.86	0.845397
2141.31	0.66708
2142.75	1.10153
2144.2	0.908288
2145.65	0.648822
2147.09	0.686917
2148.54	0.923259
2149.98	0.496324
2151.43	0.582027
2152.87	0.567491
2154.32	0.568825
2155.76	0.73542
2157.21	1.23332
2158.65	0.820714
2160.1	0.757081
2161.54	0.943461
2162.98	1.26421
2164.43	1.18856
2165.87	0.881173
2167.31	0.839115
2168.75	1.22837
2170.2	1.08426
2171.64	1.20437
2173.08	1.38929
2174.52	1.024
2175.96	1.35675
2177.4	0.974549
2178.84	0.975478
2180.28	0.977248
2181.72	0.846768
2183.16	0.816549
2184.6	0.803198
2186.04	1.13926
2187.48	1.02621
2188.92	1.0463
2190.36	0.899922
2191.79	1.05294
2193.23	0.622618
2194.67	0.857159
2196.11	0.923637
2197.54	1.12145
2198.98	0.868551
2200.42	1.13014
2201.85	0.627429
2203.29	0.922343
2204.72	0.687209
2206.16	0.701809
2207.59	0.484937
2209.03	0.483399
2210.46	0.38193
2211.9	0.494786
2213.33	0.606849
2214.77	0.55344
2216.2	0.830708
2217.63	0.514686
2219.07	0.579294
2220.5	0.677575
2221.93	0.133171
2223.36	0.61005
2224.8	0.45962
2226.23	0.867423
2227.66	0.730566
2229.09	0.69137
2230.52	0.602337
2231.95	0.283874
2233.39	0.22823
2234.81	0.467645
2236.25	0.462498
2237.67	0.393377
2239.1	0.831732
2240.53	0.260149
2241.96	0.0980496
2243.39	0.507843
2244.82	0.396052
2246.25	0.2185
2247.68	0.3822
2249.1	0.364702
2250.53	0.736357
2251.96	0.698946
2253.38	0.286791
2254.81	0.363016
2256.24	0.277924
2257.66	0.38957
2259.09	0.389941
2260.51	0.749722
2261.94	0.446348
2263.36	0.127824
2264.79	0.264253
2266.21	0.286742
2267.64	0.406213
2269.06	0.248352
2270.49	-0.138194
2271.91	0.0608206
2273.33	0.292339
2274.76	0.067903
2276.18	0.0390477
2277.6	0.222194
2279.02	0.160958
2280.44	0.213789
2281.87	-0.0433569
2283.29	0.433448
2284.71	0.306722
2286.13	0.424947
2287.55	0.0210533
2288.97	0.00924492
2290.39	-0.0349212
2291.81	0.198995
2293.23	0.416862
2294.65	0.438572
2296.07	0.0837569
2297.49	0.154345
2298.91	0.143115
2300.33	0.08285
2301.74	0.0391507
2303.16	0.192512
2304.58	-0.0477867
2306	0.138607
2307.41	0.324912
2308.83	-0.130141
2310.25	0.301944
2311.66	0.454339
2313.08	0.178982
2314.5	0.282322
2315.91	0.271072
2317.33	0.112184
2318.74	0.200769
2320.16	0.157338
2321.57	0.195497
2322.98	-0.0154009
2324.4	0.118377
2325.81	0.316258
2327.23	0.858844
2328.64	0.576084
2330.05	0.359652
2331.46	0.210019
2332.88	0.0778747
2334.29	0.226239
2335.7	0.243157
2337.11	0.0788093
2338.52	0.209715
2339.94	-0.0219483
2341.35	-0.188445
2342.76	0.153598
2344.17	0.232736
2345.58	-0.310825
2346.99	0.194807
2348.4	0.0614448
2349.81	0.0915413
2351.22	0.235401
2352.62	-0.0301037
2354.03	0.177304
2355.44	0.57932
2356.85	0.312574
2358.26	0.322877
2359.67	0.0245314
2361.07	0.327441
2362.48	0.0622196
2363.89	0.250978
2365.29	0.0671577
2366.7	0.14246
2368.11	-0.330877
2369.51	0.0363011
2370.92	-0.144133
2372.32	0.0955997
2373.73	-0.2599
2375.13	-0.131869
2376.54	0.124496
2377.94	0.540543
2379.35	0.151303
2380.75	-0.383132
2382.15	-0.0676937
2383.56	0.470495
2384.96	0.095336
2386.36	0.0329552
2387.76	-0.0285835
2389.17	-0.288354
2390.57	0.0268459
2391.97	0.0877948
2393.37	-0.0732651
2394.77	0.0845981
2396.17	0.40189
2397.58	0.163237
2398.98	0.00464344
2400.38	-0.312338
2401.78	0.11757
2403.18	-0.0402164
2404.58	0.182846
2405.97	-0.0234756
2407.37	0.182142
2408.77	0.0855803
2410.17	0.179038
2411.57	-0.123532
2412.97	0.11325
2414.37	0.129239
2415.76	-0.0277162
2417.16	-0.104428
2418.56	0.0570965
2419.95	-0.176933
2421.35	-0.126009
2422.75	-0.233769
2424.14	-0.0407348
2425.54	0.199914
2426.93	0.139905
2428.33	0.207394
2429.72	0.0853963
2431.12	-0.147188
2432.51	0.286874
2433.91	0.0221391
2435.3	-0.275441
2436.7	0.108909
2438.09	0.158402
2439.48	0.175033
2440.88	-0.0314388
2442.27	0.174506
2443.66	-0.000789165
2445.05	-0.144368
2446.44	0.18769
2447.84	-0.0511723
2449.23	0.169533
2450.62	0.0418797
2452.01	0.326265
2453.4	-0.180056
2454.79	-0.289962
2456.18	-0.177831
2457.57	-0.00218058
2458.96	-0.0797296
2460.35	0.126955
2461.74	-0.204659
2463.13	0.127123
2464.52	-0.0316067
2465.91	-0.127293
2467.29	0.14009
2468.68	0.202065
2470.07	0.326908
2471.46	-0.116216
2472.85	0.0550094
2474.23	0.0679636
2475.62	0.363512
2477.01	0.202446
2478.39	0.214336
2479.78	-0.0875125
2481.16	0.0346136
2482.55	-0.313536
2483.93	-0.0509286
2485.32	-0.0240798
2486.7	0.298659
2488.09	0.245221
2489.47	0.175682
2490.86	0.106178
2492.24	-0.133755
2493.62	0.233295
2495.01	0.243892
2496.39	-0.131992
2497.77	-0.0729074
2499.15	0.326865
2500.54	-0.0475659
2501.92	-0.0202017
2503.3	0.268835
2504.68	-0.230145
2506.06	0.211356
2507.45	0.0667872
2508.83	0.429975
2510.21	0.0862603
2511.59	-0.0260963
2512.97	-0.0763044
2514.35	-0.0491548
2515.73	-0.327483
2517.11	0.190602
2518.48	0.0205526
2519.86	-0.1186
2521.24	-0.120347
2522.62	0.152148
2524	0.0422807
2525.38	-0.0375323
2526.75	-0.0413079
2528.13	0.244325
2529.51	0.165483
2530.89	0.0120182
2532.26	0.19431
2533.64	-0.0933118
2535.02	-0.000481606
2536.39	-0.165931
2537.77	0.2302
2539.14	-0.194704
2540.52	0.0176373
2541.89	0.0473933
2543.27	0.138016
2544.64	-0.165136
2546.01	-0.209389
2547.39	0.0203524
2548.76	0.0687871
2550.14	0.344955
2551.51	0.362834
2552.88	0.364775
2554.25	-0.165287
2555.63	-0.134548
2557	-0.0436091
2558.37	-0.347089
2559.74	0.0471177
2561.11	0.153599
2562.49	0.0180955
2563.86	0.0649385
2565.23	-0.00909185
2566.6	-0.00714827
2567.97	0.100955
2569.34	0.239393
2570.71	0.211116
2572.08	0.152552
2573.45	0.139523
2574.82	0.0962501
2576.18	0.174289
2577.55	-0.0357971
2578.92	-0.139947
2580.29	0.256011
2581.66	-0.349119
2583.02	0.0461898
2584.39	0.0167475
2585.76	0.199478
2587.13	-0.117912
2588.49	-0.0107422
2589.86	0.323833
2591.22	0.112742
2592.59	0.11345
2593.96	0.446778
2595.32	-0.250702
2596.69	0.0808468
2598.05	0.123965
2599.42	0.0457487
2600.78	0.0130248
2602.14	-0.1854
2603.51	-0.186865
2604.87	0.0837407
2606.23	-0.113299
2607.6	0.202254
2608.96	0.531926
2610.32	-0.269475
2611.69	-0.212896
2613.05	0.0982895
2614.41	-0.28277
2615.77	0.0570192
2617.13	0.18641
2618.49	0.151282
2619.86	0.236576
2621.22	0.0980563
2622.58	0.0498333
2623.94	0.151199
2625.3	-0.284822
2626.66	0.0699186
2628.02	-0.0529675
2629.37	0.360129
2630.73	0.0879951
2632.09	0.187856
2633.45	0.183538
2634.81	-0.0731211
2636.17	0.145186
2637.53	0.244578
2638.88	0.210589
2640.24	0.0880079
2641.6	0.246713
2642.96	-0.0377793
2644.31	0.0916409
2645.67	-0.147992
2647.02	-0.210682
2648.38	0.330121
2649.74	0.177624
2651.09	-0.166282
2652.45	0.0630178
2653.8	0.233317
2655.16	0.0227799
2656.51	0.296813
2657.86	-0.0725985
2659.22	-0.0751162
2660.57	-0.00417423
2661.93	-0.0649285
2663.28	0.385139
2664.63	0.147929
2665.98	0.172963
2667.34	0.270419
2668.69	0.556925
2670.04	0.0429206
2671.39	0.257107
2672.75	0.31169
2674.09	0.119862
2675.45	0.204491
2676.8	-0.116728
2678.15	-0.0165792
2679.5	0.38867
2680.85	0.156723
2682.2	0.0127735
2683.55	-0.21725
2684.9	0.23511
2686.25	0.165814
2687.6	0.110908
2688.94	-0.14821
2690.29	0.0123153
2691.64	-0.04638
2692.99	0.0968437
2694.34	-0.0073967
2695.68	0.236122
2697.03	0.0452981
2698.38	0.0873451
2699.73	0.0293732
2701.07	0.0452175
2702.42	0.178166
2703.76	0.196168
2705.11	0.272624
2706.45	0.0736275
2707.8	0.0483723
2709.15	-0.340142
2710.49	0.18562
2711.83	0.188566
2713.18	0.24952
2714.52	-0.00932693
2715.87	0.0951171
2717.21	0.315866
2718.55	0.201928
2719.9	0.305902
2721.24	-0.0998273
2722.58	-0.185838
2723.93	0.237212
2725.27	0.252365
2726.61	0.107096
2727.95	0.223554
2729.29	-0.140438
2730.63	0.324915
2731.98	0.237271
2733.32	0.207902
2734.66	-0.0249562
2736	-0.0103569
2737.34	0.251601
2738.68	-0.0682025
2740.02	-0.0827699
2741.36	-0.010457
2742.7	0.235765
2744.03	0.263293
2745.37	0.0723615
2746.71	0.0264406
2748.05	0.125549
2749.39	-0.00754499
2750.72	0.294726
2752.06	0.336013
2753.4	0.102104
2754.74	0.303138
2756.07	-0.147611
2757.41	-0.12014
2758.75	0.0812254
2760.08	0.0512404
2761.42	0.195308
2762.76	0.151634
2764.09	-0.0364542
2765.42	0.38316
2766.76	0.209197
2768.09	-0.0522428
2769.43	-0.0109086
2770.76	0.159284
2772.1	0.22705
2773.43	-0.196774
2774.76	-0.0580645
2776.1	0.0371304
2777.43	0.132448
2778.76	0.199302
2780.1	-0.437666
2781.43	-0.326733
2782.76	0.157262
2784.09	-0.0621805
2785.42	-0.152366
2786.75	-0.0417757
2788.09	-0.0168185
2789.42	0.0945797
2790.75	-0.208154
2792.08	-0.0811148
2793.41	-0.0109358
2794.74	0.0735521
2796.07	0.243472
2797.4	0.36999
2798.73	0.281763
2800.06	0.307419
2801.39	-0.166471
2802.71	-0.0412002
2804.04	0.240499
2805.37	-0.019691
2806.7	0.0757909
2808.03	-0.0285053
2809.35	0.0517612
2810.68	0.20291
2812.01	0.013721
2813.33	0.0384221
2814.66	-0.233463
2815.99	-0.0788121
2817.31	-0.0650301
2818.64	0.0342813
2819.96	0.105276
2821.29	0.289299
2822.61	-0.0941081
2823.94	0.0746722
2825.26	0.0306077
2826.59	-0.0417323
2827.91	0.197847
2829.23	0.0980535
2830.56	0.0694399
2831.88	0.423212
2833.21	0.02671
2834.53	0.366015
2835.85	0.322749
2837.17	0.491296
2838.5	0.319903
2839.82	0.332267
2841.14	0.684016
2842.46	1.07834
2843.78	0.681633
2845.1	1.17594
2846.42	1.2892
2847.74	1.30386
2849.06	1.5023
2850.38	1.1634
2851.71	1.62973
2853.03	1.19107
2854.34	1.58589
2855.66	1.57069
2856.98	1.47073
2858.3	1.4697
2859.62	1.62402
2860.94	1.19923
2862.26	1.94607
2863.57	1.4079
2864.89	2.0127
2866.21	2.09522
2867.53	2.67151
2868.84	2.48653
2870.16	2.85183
2871.48	2.39962
2872.79	2.52517
2874.11	2.91774
2875.42	3.09784
2876.74	2.89664
2878.05	2.96224
2879.37	3.04155
2880.68	2.88208
2882	2.77968
2883.31	2.94516
2884.63	3.12546
2885.94	3.05357
2887.26	3.066
2888.57	2.41857
2889.88	2.54234
2891.19	3.01586
2892.51	3.05393
2893.82	3.32995
2895.13	3.11594
2896.44	3.15477
2897.76	3.58635
2899.07	3.22121
2900.38	3.55638
2901.69	3.12258
2903	3.6402
2904.31	3.8362
2905.62	3.26315
2906.93	3.85154
2908.24	3.53147
2909.55	3.70177
2910.86	4.30649
2912.17	4.16962
2913.48	4.11603
2914.79	4.18719
2916.1	4.78875
2917.41	4.88474
2918.71	4.96571
2920.02	5.20028
2921.33	4.20489
2922.64	5.07032
2923.94	5.27986
2925.25	5.26685
2926.56	5.42222
2927.86	5.43788
2929.17	5.83065
2930.48	5.7336
2931.78	4.99303
2933.09	5.8598
2934.39	6.25117
2935.7	5.73418
2937	5.42704
2938.31	5.21794
2939.61	5.17679
2940.92	5.01036
2942.22	5.05432
2943.53	4.49841
2944.83	4.7823
2946.13	4.66191
2947.43	4.16425
2948.74	4.22589
2950.04	3.99258
2951.34	3.57559
2952.64	3.85706
2953.95	3.73121
2955.25	3.54903
2956.55	4.16542
2957.85	3.55182
2959.15	3.54242
2960.45	3.71755
2961.75	3.13777
2963.05	2.79638
2964.35	3.19817
2965.65	2.89691
2966.95	3.02962
2968.25	3.20345
2969.55	3.02514
2970.85	3.05759
2972.15	2.65419
2973.45	2.68713
2974.75	2.87495
2976.05	2.61181
2977.34	2.51648
2978.64	2.50417
2979.94	2.47629
2981.24	2.53167
2982.53	2.20671
2983.83	2.03693
2985.13	1.78385
2986.42	1.61646
2987.72	1.54869
2989.01	1.69256
2990.31	1.65401
2991.61	2.12106
2992.9	1.53315
2994.19	1.22536
2995.49	1.52076
2996.78	1.12734
2998.08	0.986668
2999.37	0.860341
3000.67	0.776613
3001.96	0.805563
3003.25	1.07307
3004.55	0.429965
3005.84	0.641323
3007.13	0.600079
3008.42	0.488249
3009.72	0.655487
3011.01	0.430646
3012.3	0.317478
3013.59	0.385832
3014.88	0.217425
3016.17	0.119466
3017.46	0.356372
3018.76	0.426472
3020.05	0.134997
3021.34	0.0242229
3022.63	0.371299
3023.92	0.0231619
3025.21	0.160294
3026.49	0.0476565
3027.78	-0.0644116
3029.07	0.0181394
3030.36	0.170838
3031.65	0.296955
3032.94	-0.0593143
3034.23	0.509609
3035.51	0.553491
3036.8	0.12748
3038.09	0.155265
3039.38	0.0576291
3040.66	0.165131
3041.95	0.175505
3043.23	0.281725
3044.52	-0.145522
3045.81	0.331964
3047.09	0.605385
3048.38	0.402586
3049.66	0.106256
3050.95	0.398178
3052.23	0.486087
3053.52	0.451246
3054.8	0.347698
3056.09	0.434289
3057.37	0.53354
3058.65	0.659256
3059.94	0.41694
3061.22	0.365719
3062.5	0.315351
3063.79	0.374935
3065.07	0.408596
3066.35	0.647375
3067.63	0.329629
3068.92	0.0665507
3070.2	0.116046
3071.48	0.205711
3072.76	0.511979
3074.04	0.354853
3075.32	0.387292
3076.6	0.324346
3077.88	0.0717621
3079.16	0.362984
3080.44	-0.0501008
3081.72	0.135014
3083	-0.0586467
3084.28	0.0195928
3085.56	0.152247
3086.84	0.121737
3088.12	0.00923872
3089.4	0.0319409
3090.67	0.0407138
3091.95	0.21218
3093.23	0.0446172
3094.51	0.297778
3095.78	-0.140389
3097.06	0.2893
3098.34	0.12245
3099.61	-0.166358
3100.89	-0.0215726
3102.17	-0.310156
3103.44	-0.0703363
3104.72	-0.0873914
3105.99	0.248022
3107.27	0.00222921
3108.54	0.149747
3109.82	-0.162038
3111.09	0.0413342
3112.37	-0.011867
3113.64	0.246934
3114.92	-0.0769348
3116.19	-0.0216537
3117.46	-0.102609
3118.74	0.62945
3120.01	0.167082
3121.28	0.0838041
3122.55	0.0272431
3123.83	0.512439
3125.1	0.415135
3126.37	0.480731
3127.64	0.397948
3128.91	0.00461245
3130.19	0.3555
3131.46	0.449475
3132.73	0.394692
3134	0.447743
3135.27	0.446357
3136.54	0.161204
3137.81	0.294014
3139.08	-0.0451298
3140.35	0.343022
3141.62	0.448165
3142.89	0.27124
3144.16	0.430669
3145.42	0.214742
3146.69	0.348267
3147.96	0.428599
3149.23	0.0674906
