200.523	-0.205538
202.339	-0.187059
204.154	-0.167244
205.967	0.680463
207.781	0.652555
209.596	0.648434
211.409	0.448801
213.222	1.34022
215.034	0.846719
216.848	1.32279
218.659	1.16857
220.47	1.28153
222.281	0.935887
224.091	0.664169
225.903	0.973347
227.713	-0.215356
229.522	0.38334
231.331	0.353412
233.14	0.878035
234.948	0.365781
236.756	0.457937
238.566	0.287269
240.373	0.697803
242.18	0.170625
243.986	0.151038
245.792	0.300273
247.598	-0.37296
249.403	0.544411
251.208	0.371896
253.013	0.606784
254.818	0.381261
256.624	0.541321
258.427	0.533458
260.231	0.262439
262.034	0.812641
263.836	0.111957
265.638	0.424226
267.44	0.0862522
269.242	0.760233
271.043	0.686144
272.844	-0.0643539
274.645	0.798992
276.445	0.888929
278.245	0.735756
280.044	0.219192
281.843	0.51935
283.642	0.504375
285.44	0.487854
287.238	-0.225471
289.036	0.549151
290.833	-0.641073
292.63	0.0628815
294.425	0.600043
296.221	0.25366
298.017	0.577906
299.813	-0.100978
301.608	0.175717
303.403	0.379665
305.198	0.749125
306.992	0.282394
308.786	0.102
310.579	0.375081
312.371	0.60159
314.163	0.425035
315.956	0.202929
317.748	0.673373
319.54	0.454885
321.331	0.64269
323.122	1.09388
324.911	0.233643
326.701	-0.173853
328.491	0.0868616
330.281	0.681857
332.071	0.534684
333.857	-0.0452156
335.646	0.233841
337.434	0.582232
339.222	0.66504
341.008	0.506909
342.795	0.85
344.582	0.380383
346.369	0.0311108
348.153	0.279725
349.939	0.767488
351.724	0.324224
353.51	0.190727
355.292	0.366241
357.077	-0.0797434
358.861	0.0690432
360.643	0.549784
362.426	0.529108
364.21	0.0796356
365.99	0.176511
367.773	-0.0836601
369.555	0.177361
371.335	0.650057
373.116	0.387505
374.897	-0.25296
376.676	0.359118
378.456	-0.37358
380.236	0.639299
382.014	0.168863
383.793	0.0533314
385.57	0.268414
387.349	0.743089
389.127	0.490482
390.903	0.826235
392.681	0.270433
394.456	0.466826
396.233	-0.134848
398.007	0.226434
399.784	1.01034
401.56	0.0556726
403.333	-0.429943
405.108	-0.446561
406.881	-0.229136
408.656	0.245839
410.428	0.602894
412.202	0.607833
413.973	0.847895
415.746	0.220588
417.517	0.180763
419.29	0.235492
421.06	0.360899
422.831	-0.194691
424.601	0.164412
426.37	-0.0878372
428.141	0.480664
429.909	0.29742
431.679	-0.0500994
433.447	-0.326839
435.216	0.124331
436.983	0.317298
438.75	0.415599
440.519	0.230688
442.285	0.700428
444.052	0.487436
445.818	-0.359797
447.583	0.0101109
449.349	0.28534
451.114	0.186395
452.878	-0.0987768
454.643	-0.0333996
456.407	0.661104
458.169	-0.136058
459.934	0.138491
461.696	-0.819044
463.458	-0.19347
465.222	-0.0770493
466.983	0.437373
468.744	0.373853
470.507	0.149526
472.267	-0.0278988
474.027	0.282598
475.787	0.614725
477.548	-0.0337858
479.307	0.294025
481.065	0.317942
482.823	-0.100472
484.583	0.949725
486.341	0.767739
488.098	0.65797
489.855	0.503731
491.612	0.187011
493.37	0.477967
495.126	0.863224
496.881	0.827728
498.636	0.229491
500.391	0.61465
502.148	0.084362
503.902	0.491825
505.656	0.475502
507.409	0.387075
509.162	0.296876
510.915	0.675466
512.668	0.864116
514.42	0.674576
516.174	0.248298
517.925	0.173691
519.676	0.286105
521.427	0.750026
523.178	0.41451
524.928	0.900583
526.678	0.35396
528.427	0.44097
530.176	0.480896
531.925	0.707678
533.673	0.418328
535.422	0.782953
537.169	0.210643
538.917	0.431604
540.664	0.277684
542.411	0.216409
544.157	0.992324
545.903	0.88341
547.649	0.241191
549.395	0.597503
551.14	0.814327
552.884	0.151953
554.629	0.138151
556.373	0.0785093
558.117	0.480585
559.86	0.559931
561.603	0.340531
563.346	0.697147
565.089	0.27244
566.831	-0.426624
568.573	0.000876427
570.314	0.796275
572.053	0.537432
573.794	0.532884
575.534	-0.0890589
577.274	0.69034
579.014	0.0484724
580.754	-0.294573
582.493	0.809856
584.23	-0.269358
585.968	0.581354
587.706	0.856049
589.444	0.232166
591.181	0.228385
592.919	0.0399733
594.653	0.518619
596.39	0.698208
598.126	0.601679
599.862	0.0446205
601.595	0.429873
603.33	0.330606
605.065	-0.0920658
606.8	-0.240031
608.532	0.460982
610.266	-0.23892
611.999	-0.27233
613.732	0.130745
615.463	0.327966
617.196	-0.0017252
618.928	0.401096
620.66	0.252986
622.389	-0.079318
624.12	0.52511
625.851	0.26068
627.58	0.363085
629.31	0.809901
631.04	0.529075
632.767	0.592875
634.497	0.178572
636.223	0.15181
637.952	0.214438
639.68	0.821754
641.406	0.467212
643.134	0.702927
644.861	0.299343
646.586	0.26085
648.312	-0.070982
650.037	0.12355
651.762	0.708481
653.486	0.41161
655.211	-0.0638819
656.936	0.555235
658.659	0.447218
660.383	0.521033
662.105	0.593185
663.829	0.251473
665.55	0.455446
667.273	0.497351
668.994	0.904404
670.716	0.649104
672.436	-0.0847635
674.158	0.603053
675.877	0.835896
677.598	0.542872
679.317	0.570951
681.035	0.94281
682.755	0.623003
684.473	0.898896
686.192	0.873366
687.909	0.523574
689.628	0.656193
691.344	0.027853
693.06	0.481456
694.778	0.74989
696.493	0.37236
698.211	-0.121402
699.925	0.741476
701.64	0.866284
703.356	0.484227
705.07	0.30861
706.783	0.660504
708.498	0.736191
710.211	1.1321
711.924	0.290734
713.638	0.960027
715.35	0.371087
717.061	0.764878
718.774	1.38615
720.485	0.639121
722.196	0.827168
723.906	1.33347
725.618	0.815798
727.328	0.662101
729.037	1.3024
730.746	1.07954
732.456	0.969878
734.165	0.973362
735.873	1.13511
737.58	0.59701
739.289	0.827653
740.997	1.19427
742.703	1.40406
744.41	0.894767
746.116	0.590095
747.823	1.09704
749.529	1.38036
751.234	1.86755
752.938	0.82679
754.643	0.867178
756.347	1.67444
758.051	0.863017
759.756	1.42667
761.459	1.27088
763.162	1.47647
764.865	0.982043
766.567	1.32169
768.269	1.29792
769.97	2.04047
771.671	1.37881
773.372	2.07228
775.073	1.38589
776.773	1.53679
778.473	1.73442
780.174	1.82079
781.874	1.70489
783.573	0.978013
785.271	2.03777
786.97	1.17083
788.668	1.18321
790.365	1.53123
792.063	1.80789
793.76	1.29198
795.456	1.04745
797.153	1.59319
798.847	1.68956
800.543	1.83289
802.238	1.2128
803.933	1.60595
805.628	1.23429
807.322	1.60351
809.017	1.34223
810.71	1.16972
812.404	1.40006
814.097	1.62939
815.79	1.41035
817.483	2.04156
819.173	2.15781
820.865	2.05075
822.556	2.2567
824.248	2.17346
825.939	1.5127
827.629	1.83508
829.318	2.42773
831.008	1.57634
832.697	1.46304
834.387	1.39659
836.076	1.97803
837.765	2.35905
839.451	1.68958
841.139	1.21876
842.827	1.52818
844.514	1.50201
846.2	1.40959
847.886	1.38621
849.573	1.7907
851.259	1.72844
852.943	1.24237
854.629	2.32711
856.314	1.12267
857.997	1.69083
859.682	0.930403
861.366	1.22519
863.05	1.36079
864.732	1.31476
866.415	1.1324
868.098	0.926673
869.779	1.26165
871.461	1.10013
873.141	1.09627
874.823	1.49847
876.505	0.885274
878.184	0.475073
879.865	1.01271
881.545	0.73735
883.223	1.36418
884.903	0.973889
886.581	0.807841
888.26	1.11392
889.937	0.313004
891.616	1.08891
893.294	0.713764
894.97	0.787941
896.648	0.860778
898.323	1.29165
900	0.935431
901.675	1.22885
903.351	0.894385
905.026	0.828738
906.701	1.12061
908.375	1.05585
910.05	1.19262
911.723	0.707289
913.398	0.712587
915.07	0.607266
916.742	0.546556
918.415	0.818287
920.087	1.39963
921.76	0.432105
923.43	0.88209
925.103	1.02401
926.773	0.505525
928.443	0.320371
930.114	1.04137
931.783	0.284646
933.454	0.212295
935.123	0.55925
936.791	1.08305
938.461	1.05644
940.128	1.22974
941.796	1.13977
943.464	0.697531
945.131	0.718388
946.797	0.539292
948.465	1.10864
950.131	0.395677
951.797	0.586317
953.462	0.909271
955.128	0.550307
956.793	0.525259
958.457	0.349365
960.121	0.904752
961.786	0.601128
963.45	0.650559
965.113	0.145192
966.775	0.432981
968.44	0.474414
970.102	-0.327123
971.763	0.706575
973.425	0.546251
975.086	0.719311
976.748	0.805981
978.409	0.407702
980.069	0.319716
981.729	0.231227
983.388	0.827489
985.048	0.86815
986.708	1.54824
988.367	0.411642
990.025	0.424525
991.683	0.105198
993.341	0.249887
994.998	0.262077
996.655	1.09064
998.312	1.16858
999.969	1.26819
1001.62	1.4773
1003.28	0.805379
1004.94	0.507857
1006.59	1.0896
1008.25	0.616655
1009.9	1.08832
1011.56	-0.216389
1013.21	1.2205
1014.86	0.356341
1016.52	0.610052
1018.17	0.295215
1019.82	0.222154
1021.48	0.52198
1023.13	0.757317
1024.78	0.600289
1026.43	0.640626
1028.08	0.768359
1029.73	0.764235
1031.38	0.43111
1033.03	0.35839
1034.68	0.0875492
1036.33	0.426004
1037.98	0.654133
1039.63	0.446497
1041.28	0.218202
1042.93	0.230789
1044.57	-0.341294
1046.22	0.56608
1047.87	0.367646
1049.52	0.192794
1051.16	0.0410261
1052.81	0.302866
1054.45	0.108899
1056.1	-0.411182
1057.75	0.329093
1059.39	0.59074
1061.04	0.395087
1062.68	0.481218
1064.32	0.131436
1065.97	0.258848
1067.61	0.950054
1069.25	0.336173
1070.9	0.156374
1072.54	0.171968
1074.18	0.839028
1075.82	0.270476
1077.47	0.636226
1079.11	0.786458
1080.75	0.417122
1082.39	0.785027
1084.03	0.458016
1085.67	0.649504
1087.31	-0.0714808
1088.95	0.548518
1090.59	0.148778
1092.22	0.721128
1093.86	0.536016
1095.5	0.351503
1097.14	0.987374
1098.78	0.180717
1100.41	0.474983
1102.05	0.319263
1103.69	0.78952
1105.32	0.852441
1106.96	0.528865
1108.59	-0.0315628
1110.23	0.503493
1111.86	0.305696
1113.5	0.664748
1115.13	0.227678
1116.77	0.498446
1118.4	-0.0456018
1120.03	-0.223975
1121.67	0.155663
1123.3	0.322112
1124.93	0.425364
1126.56	-0.00517178
1128.19	0.762895
1129.83	0.312799
1131.46	0.846906
1133.09	0.419281
1134.72	-0.350442
1136.35	0.375386
1137.98	-0.0754509
1139.61	-0.0574369
1141.24	-0.339417
1142.86	0.146526
1144.49	0.354888
1146.12	-0.203585
1147.75	0.0705547
1149.38	0.345494
1151	-0.486748
1152.63	0.10815
1154.26	0.851378
1155.88	0.125216
1157.51	0.29296
1159.14	0.184538
1160.76	0.289802
1162.39	0.247475
1164.01	0.737838
1165.63	0.484608
1167.26	0.167272
1168.88	0.358981
1170.51	0.0598354
1172.13	0.374813
1173.75	-0.0344257
1175.38	0.531423
1177	-0.451624
1178.62	-0.225546
1180.24	-0.401193
1181.86	0.207043
1183.48	0.265634
1185.1	0.134004
1186.72	0.00145721
1188.34	0.204829
1189.96	-0.669286
1191.58	0.0985174
1193.2	0.652478
1194.82	0.070323
1196.44	0.433262
1198.06	-0.083025
1199.68	0.0940256
1201.29	0.294282
1202.91	0.74781
1204.53	0.452591
1206.14	0.285217
1207.76	0.369725
1209.38	0.663096
1210.99	0.746857
1212.61	0.599216
1214.22	0.678328
1215.84	-0.182202
1217.45	1.1617
1219.07	0.48613
1220.68	1.3687
1222.29	1.46233
1223.91	1.28799
1225.52	0.763818
1227.13	0.780115
1228.74	0.839404
1230.36	0.900133
1231.97	1.52036
1233.58	1.7285
1235.19	1.42148
1236.8	1.19858
1238.41	2.05188
1240.02	1.37616
1241.63	1.19675
1243.24	1.0789
1244.85	1.04285
1246.46	1.316
1248.07	1.21548
1249.67	1.46582
1251.28	1.03306
1252.89	1.6763
1254.5	1.493
1256.1	1.57992
1257.71	1.83388
1259.32	1.42721
1260.92	1.10416
1262.53	0.988515
1264.13	1.63928
1265.74	1.39892
1267.34	1.7794
1268.95	1.86863
1270.55	1.64558
1272.15	0.923603
1273.76	1.8798
1275.36	1.48718
1276.97	1.30084
1278.57	1.73508
1280.17	1.38142
1281.77	1.46234
1283.37	1.64678
1284.97	2.12125
1286.58	1.83164
1288.18	2.55622
1289.78	2.06247
1291.38	2.02405
1292.98	2.58469
1294.58	1.90473
1296.18	2.54518
1297.78	2.35738
1299.37	2.08513
1300.97	1.89382
1302.57	2.33982
1304.17	1.67257
1305.77	2.38311
1307.36	2.68084
1308.96	2.42366
1310.55	2.80232
1312.15	2.52562
1313.75	1.92325
1315.34	2.52878
1316.94	2.03201
1318.53	2.53637
1320.13	2.02048
1321.72	1.38208
1323.32	2.10635
1324.91	2.09521
1326.5	2.79281
1328.1	1.82563
1329.69	2.38011
1331.28	2.42976
1332.87	2.44175
1334.47	2.01242
1336.06	2.53403
1337.65	2.22885
1339.24	2.72938
1340.83	2.62282
1342.42	2.2722
1344.01	2.22131
1345.6	1.78777
1347.19	1.79664
1348.78	1.08653
1350.37	1.92159
1351.96	1.99859
1353.54	1.03843
1355.13	1.93921
1356.72	1.74094
1358.31	1.46234
1359.89	1.50228
1361.48	1.50099
1363.07	1.41893
1364.65	1.79507
1366.24	1.71285
1367.82	1.59189
1369.41	1.89054
1370.99	1.87235
1372.58	1.45792
1374.16	1.74131
1375.75	1.30916
1377.33	1.53376
1378.91	2.17562
1380.5	1.28406
1382.08	0.868668
1383.66	1.36674
1385.25	0.75018
1386.83	1.26609
1388.41	2.00014
1389.99	1.3251
1391.57	1.64376
1393.15	1.18953
1394.73	1.48961
1396.31	1.51172
1397.89	1.69153
1399.47	1.25574
1401.05	1.55199
1402.63	1.49095
1404.21	0.994744
1405.78	1.09287
1407.36	0.697782
1408.94	1.07453
1410.52	0.99732
1412.1	1.27552
1413.67	1.11857
1415.25	1.2961
1416.82	1.03863
1418.4	1.13577
1419.98	1.13473
1421.55	0.898679
1423.13	1.60946
1424.7	1.18039
1426.28	1.04806
1427.85	1.48712
1429.42	1.68967
1431	1.93046
1432.57	2.11074
1434.14	1.83729
1435.71	1.9568
1437.29	1.44737
1438.86	2.51159
1440.43	1.76857
1442	1.89155
1443.57	2.17261
1445.14	3.02414
1446.71	2.36252
1448.28	2.42833
1449.85	2.37656
1451.42	2.97423
1452.99	2.15681
1454.56	2.38206
1456.13	2.56801
1457.7	2.87126
1459.26	2.73995
1460.83	2.40964
1462.4	1.78202
1463.97	2.27377
1465.54	1.85961
1467.1	1.77943
1468.67	1.07155
1470.23	1.64093
1471.8	0.857639
1473.36	1.21352
1474.93	1.33484
1476.49	1.08409
1478.06	1.16679
1479.62	0.994568
1481.19	0.783084
1482.75	0.983089
1484.31	1.37881
1485.88	1.3038
1487.44	0.973299
1489	0.856812
1490.56	0.601353
1492.13	-0.0472221
1493.69	0.924109
1495.25	0.311132
1496.81	0.575234
1498.37	0.176838
1499.93	0.790636
1501.49	0.433629
1503.05	0.292015
1504.61	0.248514
1506.17	0.398927
1507.73	0.432327
1509.28	0.619029
1510.84	0.784702
1512.4	0.428692
1513.96	0.631285
1515.52	0.929685
1517.07	0.613746
1518.63	0.414492
1520.19	0.618592
1521.74	0.822479
1523.3	0.872627
1524.85	0.520833
1526.41	0.664479
1527.96	0.997085
1529.52	0.947886
1531.07	1.31649
1532.63	1.19177
1534.18	0.40569
1535.73	1.13577
1537.29	0.505034
1538.84	0.687965
1540.39	1.43663
1541.94	1.1479
1543.5	0.784331
1545.05	0.797256
1546.6	1.20432
1548.15	1.81673
1549.7	1.45323
1551.25	1.68987
1552.8	2.16985
1554.35	0.855994
1555.9	1.33871
1557.45	1.00163
1559	1.3575
1560.55	1.62215
1562.1	1.77674
1563.65	1.37301
1565.19	1.86548
1566.74	1.25715
1568.29	2.23482
1569.83	1.23363
1571.38	1.96788
1572.93	1.48846
1574.47	2.16624
1576.02	1.98535
1577.56	2.02874
1579.11	2.61408
1580.66	1.59452
1582.2	2.01362
1583.74	1.89217
1585.29	2.25745
1586.83	1.91315
1588.38	2.69099
1589.92	2.23419
1591.46	2.05728
1593.01	2.83463
1594.55	2.13238
1596.09	2.57269
1597.63	2.33907
1599.17	2.66862
1600.71	2.56789
1602.25	2.76793
1603.79	2.16065
1605.34	2.30341
1606.88	2.42577
1608.41	2.03824
1609.95	1.81705
1611.49	2.06289
1613.03	1.78034
1614.57	2.34112
1616.11	1.83163
1617.65	1.75448
1619.18	1.58515
1620.72	1.92337
1622.26	1.94473
1623.79	2.0045
1625.33	1.67116
1626.87	1.24345
1628.4	1.80602
1629.94	2.06729
1631.48	2.00931
1633.01	2.24979
1634.55	1.44504
1636.08	0.940619
1637.61	1.59395
1639.15	1.80006
1640.68	1.59603
1642.21	1.78264
1643.75	2.19119
1645.28	2.05818
1646.81	2.09161
1648.34	1.3814
1649.88	2.1581
1651.41	1.91438
1652.94	2.02481
1654.47	1.91399
1656	2.02639
1657.53	2.24979
1659.06	2.49057
1660.59	2.30375
1662.12	2.30037
1663.65	1.99985
1665.18	2.19781
1666.71	1.63928
1668.24	1.4148
1669.76	1.67153
1671.29	1.91134
1672.82	2.11545
1674.35	1.69386
1675.87	1.99019
1677.4	1.95409
1678.93	2.21103
1680.45	1.6207
1681.98	1.48953
1683.5	1.1378
1685.03	1.35547
1686.55	1.11481
1688.08	1.16819
1689.6	0.892223
1691.13	1.07454
1692.65	0.12215
1694.17	0.908265
1695.7	0.706185
1697.22	0.74156
1698.74	0.995634
1700.27	0.883915
1701.79	0.662322
1703.31	1.07822
1704.83	0.254614
1706.35	0.177806
1707.87	0.137184
1709.39	0.695907
1710.91	0.673058
1712.43	0.505389
1713.95	0.356286
1715.47	0.0445747
1716.99	0.257821
1718.51	0.091053
1720.03	0.231453
1721.55	-0.0431623
1723.07	0.0618534
1724.58	-0.372704
1726.1	0.455077
1727.62	0.0415764
1729.13	0.169219
1730.65	0.70934
1732.17	-0.0900192
1733.68	0.296517
1735.2	0.199544
1736.72	0.26685
1738.23	0.275571
1739.74	0.451095
1741.26	0.736786
1742.77	0.16178
1744.29	0.0581551
1745.8	0.214215
1747.32	-0.175998
1748.83	0.242308
1750.34	0.210513
1751.85	0.063283
1753.37	-0.238723
1754.88	-0.163448
1756.39	-0.0858641
1757.9	0.233575
1759.41	0.116523
1760.92	0.378426
1762.44	0.0208588
1763.95	-0.189134
1765.46	0.29256
1766.96	-0.0167408
1768.47	0.169786
1769.98	0.239383
1771.49	0.129745
1773	0.244947
1774.51	0.0415344
1776.02	0.059762
1777.53	-0.0180712
1779.03	0.199087
1780.54	-0.302819
1782.05	0.355929
1783.55	-0.187363
1785.06	0.295527
1786.57	0.0456429
1788.07	0.0873899
1789.58	-0.237064
1791.08	-0.162676
1792.59	0.41051
1794.09	0.0191498
1795.6	-0.274962
1797.1	-0.14949
1798.61	0.132774
1800.11	0.0887213
1801.61	0.0352926
1803.12	0.0402021
1804.62	0.0201416
1806.12	-0.0837116
1807.62	0.108481
1809.12	0.0134916
1810.63	-0.161439
1812.13	0.298972
1813.63	-0.182188
1815.13	0.125024
1816.63	-0.192967
1818.13	-0.0466366
1819.63	-0.00399876
1821.13	0.00119781
1822.63	0.160214
1824.13	0.101093
1825.63	0.07547
1827.13	0.14237
1828.62	-0.0442438
1830.12	-0.192913
1831.62	-0.149684
1833.12	-0.0158434
1834.61	0.361769
1836.11	-0.0273342
1837.61	-0.221756
1839.1	0.0710592
1840.6	0.126038
1842.09	-0.38364
1843.59	0.153841
1845.09	-0.202177
1846.58	0.29412
1848.08	0.0339823
1849.57	-0.0134363
1851.06	0.447433
1852.56	0.436419
1854.05	-0.251764
1855.54	-0.290493
1857.04	-0.171707
1858.53	0.246892
1860.02	0.0182457
1861.51	-0.100101
1863.01	0.131752
1864.5	-0.498796
1865.99	0.127396
1867.48	0.116683
1868.97	0.355649
1870.46	-0.0328999
1871.95	0.0930529
1873.44	0.0729027
1874.93	0.140452
1876.42	-0.03792
1877.91	0.272071
1879.4	0.16582
1880.89	0.098237
1882.37	0.535915
1882.46	0.562294
1883.95	-0.0479536
1885.45	0.404385
1886.94	0.385051
1888.43	-0.0526581
1889.93	-0.385343
1891.42	-0.142809
1892.91	-0.124786
1894.41	-0.226524
1895.9	0.14286
1897.39	0.495933
1898.88	0.188064
1900.37	0.000802994
1901.86	0.698974
1903.36	0.229656
1904.85	0.454379
1906.34	0.278337
1907.83	0.0676727
1909.32	-0.15951
1910.81	-0.177306
1912.29	-0.0553532
1913.78	-0.0195465
1915.27	-0.000973701
1916.76	-0.0521011
1918.25	0.502846
1919.74	0.537139
1921.23	0.259498
1922.71	-0.000234604
1924.2	0.0700188
1925.69	0.401151
1927.17	0.439172
1928.66	0.0624104
1930.15	0.0318832
1931.63	-0.189971
1933.12	0.123461
1934.6	0.209812
1936.09	0.501851
1937.57	0.342626
1939.06	0.234887
1940.54	0.282983
1942.02	0.176616
1943.51	0.209507
1944.99	-0.136041
1946.47	0.225869
1947.96	0.41499
1949.44	0.430893
1950.92	0.376795
1952.4	0.184053
1953.88	0.266039
1955.37	0.347792
1956.85	0.223765
1958.33	0.0148144
1959.81	0.321513
1961.29	-0.143081
1962.77	0.215677
1964.25	-0.282704
1965.73	0.160722
1967.21	-0.23572
1968.69	0.154434
1970.16	-0.00355625
1971.64	0.00918293
1973.12	0.0388956
1974.6	-0.221298
1976.08	0.132654
1977.55	0.554443
1979.03	0.158736
1980.51	0.120745
1981.98	0.0486193
1983.46	0.0951891
1984.94	0.0903997
1986.41	-0.219954
1987.89	0.181936
1989.36	-0.178533
1990.84	0.189896
1992.31	0.152943
1993.79	0.370701
1995.26	0.132908
1996.73	0.385694
1998.21	0.0303116
1999.68	0.265609
2001.15	0.0781813
2002.63	-0.177085
2004.1	0.140911
2005.57	0.256731
2007.04	0.339548
2008.51	0.574888
2009.99	0.322859
2011.46	0.155674
2012.93	0.15692
2014.4	0.376501
2015.87	0.0399494
2017.34	0.173547
2018.81	0.205269
2020.28	0.421175
2021.75	0.687053
2023.21	-0.0876951
2024.68	0.07866
2026.15	0.296467
2027.62	0.264158
2029.09	0.0489693
2030.56	0.0700197
2032.02	-0.193154
2033.49	0.282663
2034.96	-0.315946
2036.42	-0.142605
2037.89	0.164704
2039.36	0.320464
2040.82	0.106378
2042.29	0.380192
2043.75	0.133541
2045.22	0.459773
2046.68	0.383106
2048.14	-0.148099
2049.61	0.449003
2051.07	0.388013
2052.54	0.527681
2054	0.0413761
2055.46	0.092865
2056.93	0.0922689
2058.39	0.377256
2059.85	0.156477
2061.31	0.592945
2062.77	0.878517
2064.23	0.0711565
2065.7	0.156978
2067.16	0.563458
2068.62	0.145945
2070.08	0.503005
2071.54	0.489855
2073	0.325011
2074.46	0.294557
2075.92	0.0953369
2077.38	-0.137972
2078.83	0.217703
2080.29	0.471822
2081.75	0.169677
2083.21	0.422411
2084.67	0.539581
2086.12	0.55492
2087.58	0.334148
2089.04	0.466045
2090.49	0.328809
2091.95	0.34273
2093.41	0.322981
2094.86	0.152046
2096.32	0.533881
2097.77	0.261286
2099.23	-0.0618181
2100.68	0.635331
2102.14	0.646478
2103.59	0.70859
2105.05	0.772038
2106.5	0.720208
2107.95	0.436111
2109.41	0.40269
2110.86	0.185373
2112.31	0.616704
2113.76	0.52948
2115.21	0.590356
2116.67	0.932718
2118.12	0.244924
2119.57	0.422696
2121.02	0.900902
2122.47	0.684324
2123.92	0.801119
2125.37	0.587024
2126.82	0.78722
2128.27	0.43926
2129.72	0.785995
2131.17	0.584435
2132.62	0.895329
2134.07	0.957628
2135.51	0.723066
2136.96	0.837364
2138.41	1.03624
2139.86	1.10499
2141.31	1.05989
2142.75	1.13186
2144.2	1.15501
2145.65	1.1287
2147.09	0.919931
2148.54	0.760011
2149.98	1.06293
2151.43	1.1329
2152.87	1.38403
2154.32	1.43539
2155.76	1.30395
2157.21	1.15602
2158.65	1.15793
2160.1	1.3932
2161.54	0.768821
2162.98	1.20696
2164.43	1.24916
2165.87	1.40861
2167.31	1.11965
2168.75	0.928948
2170.2	1.78394
2171.64	1.53913
2173.08	0.676501
2174.52	1.09326
2175.96	1.24311
2177.4	1.92516
2178.84	1.26121
2180.28	1.19691
2181.72	1.66564
2183.16	1.56978
2184.6	1.02512
2186.04	1.42859
2187.48	1.46617
2188.92	1.32075
2190.36	1.35835
2191.79	0.96281
2193.23	1.09919
2194.67	1.384
2196.11	1.33379
2197.54	1.01518
2198.98	1.32685
2200.42	1.10518
2201.85	1.13267
2203.29	1.16079
2204.72	1.07399
2206.16	1.25361
2207.59	0.936694
2209.03	0.586754
2210.46	0.567373
2211.9	0.77853
2213.33	0.856337
2214.77	1.09903
2216.2	0.813792
2217.63	1.00854
2219.07	0.891125
2220.5	0.791246
2221.93	0.543276
2223.36	0.756062
2224.8	0.687254
2226.23	1.11035
2227.66	0.97191
2229.09	0.339554
2230.52	0.774065
2231.95	0.633784
2233.39	0.706876
2234.81	0.796961
2236.25	0.283632
2237.67	0.670673
2239.1	0.390264
2240.53	0.552608
2241.96	0.276456
2243.39	0.474648
2244.82	0.575412
2246.25	0.642904
2247.68	0.741338
2249.1	-0.0266161
2250.53	0.181463
2251.96	0.452486
2253.38	0.933486
2254.81	0.325272
2256.24	0.287766
2257.66	0.512346
2259.09	0.204417
2260.51	0.629686
2261.94	0.197557
2263.36	0.0428028
2264.79	0.52203
2266.21	0.708775
2267.64	0.520699
2269.06	0.884784
2270.49	0.320312
2271.91	0.422575
2273.33	0.231523
2274.76	0.235936
2276.18	0.56643
2277.6	0.571323
2279.02	0.592591
2280.44	0.271368
2281.87	0.390241
2283.29	0.39486
2284.71	0.122099
2286.13	0.453354
2287.55	0.621901
2288.97	0.448024
2290.39	0.454196
2291.81	0.264507
2293.23	0.532698
2294.65	0.375712
2296.07	-0.272552
2297.49	0.470462
2298.91	0.00186729
2300.33	0.336126
2301.74	-0.0832911
2303.16	0.727599
2304.58	0.0457916
2306	0.266461
2307.41	-0.318114
2308.83	0.296203
2310.25	0.153967
2311.66	0.208586
2313.08	0.361898
2314.5	0.21944
2315.91	0.159952
2317.33	-0.0305834
2318.74	0.20774
2320.16	0.413128
2321.57	0.320574
2322.98	0.0444593
2324.4	0.261007
2325.81	1.15153
2327.23	0.390347
2328.64	0.865165
2330.05	0.532492
2331.46	0.250474
2332.88	-0.260571
2334.29	0.496527
2335.7	-0.046032
2337.11	0.282896
2338.52	0.068078
2339.94	0.0987396
2341.35	0.538913
2342.76	0.354315
2344.17	0.104305
2345.58	0.346571
2346.99	0.408663
2348.4	-0.0531025
2349.81	0.30328
2351.22	-0.0772505
2352.62	0.0318136
2354.03	-0.105072
2355.44	-0.0304995
2356.85	-0.119284
2358.26	0.55655
2359.67	0.0774336
2361.07	0.151284
2362.48	0.257392
2363.89	0.60611
2365.29	0.468634
2366.7	0.153854
2368.11	-0.240407
2369.51	0.06075
2370.92	0.314414
2372.32	-0.0108194
2373.73	0.164538
2375.13	0.0826311
2376.54	-0.0960951
2377.94	0.319259
2379.35	0.137908
2380.75	0.131702
2382.15	0.460754
2383.56	-0.156926
2384.96	-0.133526
2386.36	-0.0299139
2387.76	0.0743494
2389.17	-0.0595436
2390.57	0.301964
2391.97	0.234322
2393.37	0.215577
2394.77	-0.0567379
2396.17	0.14886
2397.58	0.0371103
2398.98	-0.105755
2400.38	-0.470454
2401.78	0.277143
2403.18	-0.198293
2404.58	0.278773
2405.97	0.469002
2407.37	-0.0242205
2408.77	0.0689783
2410.17	0.193407
2411.57	-0.0148077
2412.97	0.0155287
2414.37	-0.0478601
2415.76	-0.0305738
2417.16	0.558027
2418.56	-0.0556164
2419.95	0.106944
2421.35	0.19026
2422.75	-0.0436096
2424.14	-0.0560122
2425.54	0.407007
2426.93	0.189181
2428.33	0.416041
2429.72	0.168287
2431.12	0.222544
2432.51	-0.0245819
2433.91	0.50575
2435.3	0.41572
2436.7	0.133404
2438.09	0.659739
2439.48	-0.245131
2440.88	0.659833
2442.27	0.293624
2443.66	0.228864
2445.05	0.163962
2446.44	0.225785
2447.84	0.0655394
2449.23	-0.110427
2450.62	-0.0326853
2452.01	0.457042
2453.4	-0.0179434
2454.79	-0.175423
2456.18	0.0791426
2457.57	0.0651159
2458.96	-0.0123167
2460.35	0.368312
2461.74	0.052268
2463.13	0.367795
2464.52	0.382263
2465.91	-0.61435
2467.29	0.299861
2468.68	0.0140266
2470.07	-0.0194092
2471.46	0.356563
2472.85	0.0224886
2474.23	0.223296
2475.62	0.281537
2477.01	-0.0379572
2478.39	-0.168546
2479.78	0.203388
2481.16	-0.177738
2482.55	-0.135292
2483.93	0.282342
2485.32	-0.0680532
2486.7	0.112302
2488.09	-0.239479
2489.47	-0.0768661
2490.86	-0.132755
2492.24	-0.156922
2493.62	-0.00916862
2495.01	0.403377
2496.39	0.119022
2497.77	0.316191
2499.15	0.0645151
2500.54	-0.016983
2501.92	-0.300065
2503.3	0.0494585
2504.68	-0.111677
2506.06	0.343223
2507.45	-0.0804796
2508.83	0.21946
2510.21	0.334888
2511.59	-0.0709038
2512.97	-0.0459261
2514.35	-0.433661
2515.73	-0.177103
2517.11	-0.0118732
2518.48	-0.136746
2519.86	-0.291858
2521.24	0.0722294
2522.62	0.206278
2524	-0.194575
2525.38	0.120749
2526.75	-0.143408
2528.13	-0.0872269
2529.51	-0.0756607
2530.89	0.0742798
2532.26	-0.0932369
2533.64	0.0901642
2535.02	-0.0599174
2536.39	0.458462
2537.77	0.186169
2539.14	0.20153
2540.52	0.216002
2541.89	-0.119035
2543.27	-0.0894518
2544.64	0.0623064
2546.01	0.154605
2547.39	0.369539
2548.76	0.342708
2550.14	-0.184736
2551.51	-0.0905809
2552.88	0.139256
2554.25	0.170713
2555.63	0.186028
2557	0.10972
2558.37	0.184933
2559.74	0.427118
2561.11	-0.179
2562.49	0.215925
2563.86	0.232562
2565.23	0.0526667
2566.6	0.554983
2567.97	-0.0640421
2569.34	0.0443735
2570.71	0.213421
2572.08	-0.102512
2573.45	0.0515118
2574.82	0.220819
2576.18	-0.0797977
2577.55	0.407902
2578.92	-0.181144
2580.29	0.184704
2581.66	0.110395
2583.02	-0.267528
2584.39	-0.0392332
2585.76	-0.0838976
2587.13	-0.00718784
2588.49	-0.18794
2589.86	0.419501
2591.22	0.178144
2592.59	-0.0333357
2593.96	0.254344
2595.32	0.192489
2596.69	0.174993
2598.05	-0.0551348
2599.42	-0.0132685
2600.78	0.14952
2602.14	-0.0498199
2603.51	0.20459
2604.87	0.0368805
2606.23	0.21647
2607.6	0.244825
2608.96	-0.134652
2610.32	0.162878
2611.69	0.398397
2613.05	-0.345162
2614.41	0.0986395
2615.77	0.346151
2617.13	-0.216133
2618.49	0.106905
2619.86	0.265579
2621.22	0.469647
2622.58	0.524586
2623.94	0.460254
2625.3	-0.141252
2626.66	0.107817
2628.02	0.0581512
2629.37	0.112471
2630.73	-0.324506
2632.09	0.0418787
2633.45	-0.038003
2634.81	0.238434
2636.17	0.24744
2637.53	0.315691
2638.88	-0.0307035
2640.24	0.171023
2641.6	0.343136
2642.96	0.19029
2644.31	0.480746
2645.67	0.283884
2647.02	-0.296395
2648.38	-0.0810375
2649.74	-0.117067
2651.09	0.199097
2652.45	0.220531
2653.8	-0.256705
2655.16	-0.292555
2656.51	0.361128
2657.86	0.341822
2659.22	0.279637
2660.57	-0.0452089
2661.93	0.214728
2663.28	0.0648003
2664.63	-0.056591
2665.98	0.361071
2667.34	0.194592
2668.69	0.261255
2670.04	-0.0793257
2671.39	-0.244383
2672.75	0.0854597
2674.09	0.15416
2675.45	0.136303
2676.8	0.13357
2678.15	-0.158547
2679.5	0.217346
2680.85	-0.145214
2682.2	0.247393
2683.55	0.00330257
2684.9	0.00670052
2686.25	0.141203
2687.6	-7.9155e-005
2688.94	0.0461025
2690.29	0.2067
2691.64	-0.0120382
2692.99	-0.0291176
2694.34	0.286299
2695.68	0.2823
2697.03	0.467245
2698.38	0.479641
2699.73	0.334577
2701.07	-0.0692577
2702.42	-0.399263
2703.76	0.401826
2705.11	-0.013567
2706.45	0.0928659
2707.8	0.300713
2709.15	0.450245
2710.49	-0.0830536
2711.83	0.370809
2713.18	0.0401335
2714.52	0.217923
2715.87	0.0758829
2717.21	0.457207
2718.55	0.329296
2719.9	0.3319
2721.24	0.0720634
2722.58	0.62673
2723.93	0.234848
2725.27	0.337375
2726.61	0.206609
2727.95	0.526694
2729.29	0.366226
2730.63	-0.0271711
2731.98	0.35057
2733.32	0.291898
2734.66	0.349787
2736	0.247896
2737.34	0.466135
2738.68	0.524367
2740.02	0.582336
2741.36	0.203581
2742.7	0.623825
2744.03	0.403639
2745.37	0.371778
2746.71	-0.0235748
2748.05	0.118272
2749.39	0.245527
2750.72	0.0248003
2752.06	-0.180993
2753.4	0.0773754
2754.74	0.364727
2756.07	0.0292425
2757.41	-0.0742035
2758.75	0.242468
2760.08	0.342305
2761.42	-0.00597668
2762.76	-0.0208731
2764.09	-0.00648785
2765.42	0.094717
2766.76	0.209927
2768.09	0.237365
2769.43	-0.0402002
2770.76	-0.131153
2772.1	0.209852
2773.43	0.0730429
2774.76	0.00795269
2776.1	0.0725431
2777.43	0.295703
2778.76	0.389667
2780.1	0.139166
2781.43	-0.0244703
2782.76	0.343213
2784.09	-0.365294
2785.42	0.116699
2786.75	0.111253
2788.09	0.0490656
2789.42	0.130829
2790.75	0.113353
2792.08	0.768748
2793.41	-0.0909309
2794.74	-0.378484
2796.07	-0.037529
2797.4	0.245533
2798.73	0.270783
2800.06	0.0957355
2801.39	0.106006
2802.71	0.0162601
2804.04	0.268363
2805.37	0.391544
2806.7	-0.18352
2808.03	0.251402
2809.35	-0.15332
2810.68	0.0532398
2812.01	-0.151458
2813.33	0.113292
2814.66	0.350952
2815.99	0.221492
2817.31	0.13581
2818.64	-0.147649
2819.96	-0.289335
2821.29	0.177989
2822.61	0.0776863
2823.94	-0.0657444
2825.26	0.00297832
2826.59	-0.409777
2827.91	-0.269682
2829.23	0.111597
2830.56	0.082777
2831.88	-0.172293
2833.21	0.209583
2834.53	0.591102
2835.85	0.575762
2837.17	0.418359
2838.5	0.218123
2839.82	1.0077
2841.14	0.75073
2842.46	0.918365
2843.78	0.973566
2845.1	1.00127
2846.42	1.28403
2847.74	1.27041
2849.06	1.85047
2850.38	1.41258
2851.71	1.7798
2853.03	1.6235
2854.34	1.96139
2855.66	1.40885
2856.98	1.7323
2858.3	1.7026
2859.62	1.99771
2860.94	2.05251
2862.26	1.86695
2863.57	2.49968
2864.89	2.46861
2866.21	2.67732
2867.53	3.15416
2868.84	3.05318
2870.16	2.85404
2871.48	3.14852
2872.79	3.49898
2874.11	2.63672
2875.42	3.3232
2876.74	3.37435
2878.05	3.1712
2879.37	3.55859
2880.68	3.66477
2882	3.32216
2883.31	3.71134
2884.63	3.18874
2885.94	3.55148
2887.26	3.07207
2888.57	3.30804
2889.88	3.58511
2891.19	3.60863
2892.51	3.77156
2893.82	3.75202
2895.13	4.01293
2896.44	4.12058
2897.76	3.89353
2899.07	4.17144
2900.38	4.01654
2901.69	4.42176
2903	3.86203
2904.31	4.19769
2905.62	4.23992
2906.93	4.61846
2908.24	5.0959
2909.55	4.93088
2910.86	4.54256
2912.17	4.82598
2913.48	5.85066
2914.79	5.66983
2916.1	5.16499
2917.41	5.77815
2918.71	5.92802
2920.02	6.06356
2921.33	6.24171
2922.64	5.87606
2923.94	6.42072
2925.25	6.53341
2926.56	6.95444
2927.86	6.69058
2929.17	6.77577
2930.48	6.52476
2931.78	6.84634
2933.09	6.72024
2934.39	6.65003
2935.7	6.4961
2937	6.64983
2938.31	5.93738
2939.61	6.16152
2940.92	6.05087
2942.22	6.19273
2943.53	6.16831
2944.83	5.33462
2946.13	5.74645
2947.43	5.45979
2948.74	4.96272
2950.04	4.6461
2951.34	4.7755
2952.64	4.8748
2953.95	5.07047
2955.25	4.43968
2956.55	4.52379
2957.85	4.73607
2959.15	4.75545
2960.45	4.35777
2961.75	4.92919
2963.05	4.12762
2964.35	4.02628
2965.65	4.11992
2966.95	3.93073
2968.25	3.90858
2969.55	4.20895
2970.85	4.03107
2972.15	3.1922
2973.45	3.73238
2974.75	3.35791
2976.05	3.19378
2977.34	3.00007
2978.64	2.83267
2979.94	3.26871
2981.24	2.98531
2982.53	2.88429
2983.83	2.64308
2985.13	2.5297
2986.42	2.31964
2987.72	2.27985
2989.01	1.8477
2990.31	2.0904
2991.61	2.20615
2992.9	2.05373
2994.19	1.67514
2995.49	1.64666
2996.78	1.5191
2998.08	1.32121
2999.37	1.08165
3000.67	0.520336
3001.96	0.941192
3003.25	0.899803
3004.55	0.550378
3005.84	0.705059
3007.13	0.803009
3008.42	0.913979
3009.72	0.618356
3011.01	0.531916
3012.3	0.654552
3013.59	0.191023
3014.88	0.648666
3016.17	0.409839
3017.46	0.255634
3018.76	0.630919
3020.05	0.129733
3021.34	0.281945
3022.63	-0.0391483
3023.92	-0.0693102
3025.21	0.398902
3026.49	0.478111
3027.78	0.0871477
3029.07	0.416946
3030.36	0.457684
3031.65	0.0580425
3032.94	0.419149
3034.23	0.29736
3035.51	0.299294
3036.8	0.0792742
3038.09	0.367446
3039.38	0.350295
3040.66	0.0153265
3041.95	0.284189
3043.23	0.0313311
3044.52	0.176955
3045.81	0.214531
3047.09	0.295287
3048.38	-0.00385952
3049.66	0.381896
3050.95	0.182419
3052.23	0.188565
3053.52	0.222058
3054.8	0.514095
3056.09	0.300258
3057.37	0.41258
3058.65	0.469405
3059.94	0.661988
3061.22	0.541718
3062.5	0.817036
3063.79	0.237045
3065.07	0.352296
3066.35	0.496232
3067.63	0.219809
3068.92	0.50131
3070.2	0.1026
3071.48	0.274211
3072.76	0.0773535
3074.04	0.368678
3075.32	-0.0750055
3076.6	0.228299
3077.88	0.205916
3079.16	0.143953
3080.44	0.25994
3081.72	-0.0293751
3083	-0.113885
3084.28	0.0601263
3085.56	0.112159
3086.84	0.0687447
3088.12	-0.274023
3089.4	0.196859
3090.67	-0.0656486
3091.95	0.0380821
3093.23	-0.102231
3094.51	0.0697279
3095.78	0.0249829
3097.06	-0.209428
3098.34	-0.0100918
3099.61	0.0399666
3100.89	0.171183
3102.17	0.00444603
3103.44	-0.405612
3104.72	0.281417
3105.99	0.373489
3107.27	0.195874
3108.54	-0.413719
3109.82	-0.0613441
3111.09	0.156822
3112.37	-0.0981131
3113.64	0.162139
3114.92	0.259941
3116.19	0.194613
3117.46	-0.102222
3118.74	-0.210301
3120.01	0.209422
3121.28	-0.104134
3122.55	-0.0792813
3123.83	0.202711
3125.1	-0.0976014
3126.37	0.171251
3127.64	0.264604
3128.91	0.04738
3130.19	0.37152
3131.46	0.168424
3132.73	0.438276
3134	0.396879
3135.27	0.165976
3136.54	0.16409
3137.81	0.0673108
3139.08	0.199308
3140.35	0.277068
3141.62	0.179911
3142.89	0.392276
3144.16	0.33628
3145.42	0.482241
3146.69	0.588503
3147.96	0.601568
3149.23	0.30729
