200.523	0.142593
202.339	0.154125
204.154	0.166683
205.967	0.131397
207.781	0.606942
209.596	0.449936
211.409	1.04515
213.222	0.54641
215.034	0.21731
216.848	0.785063
218.659	0.0200825
220.47	0.975077
222.281	-0.416519
224.091	0.369961
225.903	-0.148726
227.713	0.6617
229.522	0.239755
231.331	1.00041
233.14	0.240405
234.948	0.421842
236.756	-0.456383
238.566	0.402731
240.373	0.106858
242.18	-0.283797
243.986	-0.191259
245.792	0.0944157
247.598	0.016984
249.403	-0.11081
251.208	0.386798
253.013	-0.0592346
254.818	-0.578508
256.624	0.421412
258.427	0.360744
260.231	0.229236
262.034	0.0752554
263.836	0.11534
265.638	0.87916
267.44	0.269863
269.242	0.793067
271.043	0.0139055
272.844	0.487486
274.645	-0.414286
276.445	0.587289
278.245	-0.124022
280.044	0.223491
281.843	0.18392
283.642	0.407496
285.44	-0.451542
287.238	0.130586
289.036	0.160139
290.833	-0.00135803
292.63	0.173558
294.425	0.56476
296.221	0.0243769
298.017	0.154492
299.813	0.117699
301.608	-0.158041
303.403	0.473044
305.198	-0.0428514
306.992	0.252023
308.786	0.379572
310.579	-0.135801
312.371	0.350492
314.163	0.647397
315.956	0.61246
317.748	0.3647
319.54	0.213371
321.331	0.46806
323.122	-0.111009
324.911	1.00382
326.701	0.186087
328.491	-0.035532
330.281	-0.0188494
332.071	0.762336
333.857	0.0592909
335.646	0.263618
337.434	0.537953
339.222	-0.146399
341.008	0.48377
342.795	0.658644
344.582	0.474965
346.369	0.148563
348.153	0.419872
349.939	0.428886
351.724	0.485666
353.51	0.422665
355.292	0.549678
357.077	0.246365
358.861	-0.010025
360.643	0.375984
362.426	-0.000733852
364.21	0.454737
365.99	0.148685
367.773	0.0799146
369.555	0.342557
371.335	-0.13026
373.116	-0.22403
374.897	0.391074
376.676	0.273122
378.456	-0.0563421
380.236	0.157371
382.014	-0.0990982
383.793	0.116224
385.57	0.473341
387.349	0.408176
389.127	0.390962
390.903	0.0927162
392.681	-0.251762
394.456	-0.00865602
396.233	0.0938482
398.007	0.313865
399.784	0.580759
401.56	0.0487261
403.333	-0.0375385
405.108	0.157479
406.881	0.0700836
408.656	0.0761776
410.428	0.246329
412.202	0.0879068
413.973	0.0941272
415.746	0.59365
417.517	0.765335
419.29	0.632533
421.06	0.171307
422.831	0.437459
424.601	0.350959
426.37	-0.158852
428.141	-0.0589027
429.909	0.580536
431.679	-0.0944848
433.447	0.169599
435.216	0.293134
436.983	0.135011
438.75	0.140625
440.519	-0.159929
442.285	-0.297643
444.052	-0.0148587
445.818	0.00846577
447.583	-0.132983
449.349	-0.157604
451.114	0.542136
452.878	0.0037818
454.643	-0.30028
456.407	0.701258
458.169	0.303851
459.934	0.0700192
461.696	0.185877
463.458	0.0936565
465.222	0.630732
466.983	-0.038249
468.744	0.387022
470.507	0.418785
472.267	0.171801
474.027	-0.0294938
475.787	0.000601768
477.548	0.867691
479.307	0.754985
481.065	0.688077
482.823	0.551461
484.583	0.252786
486.341	0.141907
488.098	0.219051
489.855	0.297874
491.612	0.400988
493.37	0.38798
495.126	0.23477
496.881	0.0811944
498.636	0.325435
500.391	0.217972
502.148	0.837436
503.902	0.0242906
505.656	0.125796
507.409	0.532065
509.162	0.466952
510.915	0.494637
512.668	0.285745
514.42	-0.183137
516.174	-0.0177336
517.925	0.240742
519.676	0.944875
521.427	-0.043932
523.178	0.61172
524.928	0.374626
526.678	0.161226
528.427	0.299753
530.176	0.461482
531.925	0.247969
533.673	0.291541
535.422	0.404297
537.169	0.0717583
538.917	0.0656061
540.664	0.618228
542.411	0.074244
544.157	0.159375
545.903	0.383687
547.649	0.352324
549.395	-0.235109
551.14	0.614543
552.884	1.30057
554.629	1.03798
556.373	0.129899
558.117	0.584413
559.86	-0.274697
561.603	-0.211146
563.346	0.47374
565.089	0.514515
566.831	-0.0184894
568.573	0.413948
570.314	0.0207005
572.053	0.0646586
573.794	0.843902
575.534	-0.0959549
577.274	-0.277653
579.014	-0.0223527
580.754	0.30264
582.493	0.191411
584.23	0.332532
585.968	-0.0790048
587.706	-0.376713
589.444	0.24488
591.181	0.497726
592.919	0.220983
594.653	0.473294
596.39	0.265489
598.126	-0.172412
599.862	1.11487
601.595	1.38908
603.33	0.811153
605.065	1.42778
606.8	1.37635
608.532	1.39317
610.266	0.0787721
611.999	0.00484514
613.732	0.183782
615.463	-0.576571
617.196	-0.00747108
618.928	0.354684
620.66	0.509645
622.389	-0.160067
624.12	0.770604
625.851	0.0781322
627.58	-0.0418863
629.31	0.0906997
631.04	-0.345443
632.767	-0.163989
634.497	0.155203
636.223	0.382917
637.952	0.0614357
639.68	0.650823
641.406	0.0741267
643.134	0.362363
644.861	-0.261553
646.586	0.116783
648.312	0.973287
650.037	0.763598
651.762	0.284469
653.486	0.376427
655.211	0.19809
656.936	-0.0243793
658.659	0.893124
660.383	0.671246
662.105	1.04144
663.829	0.199017
665.55	0.131185
667.273	0.656436
668.994	0.700998
670.716	0.28867
672.436	0.953207
674.158	1.20826
675.877	1.09875
677.598	0.301724
679.317	0.307052
681.035	1.18523
682.755	0.429845
684.473	1.00696
686.192	0.615755
687.909	0.107925
689.628	0.267135
691.344	0.955612
693.06	0.814317
694.778	0.695448
696.493	0.598847
698.211	0.570397
699.925	0.702054
701.64	1.43058
703.356	0.594589
705.07	1.22901
706.783	0.599868
708.498	0.91151
710.211	0.741187
711.924	0.250358
713.638	0.194699
715.35	0.481767
717.061	0.654117
718.774	0.575297
720.485	0.975353
722.196	0.737251
723.906	0.499583
725.618	0.785045
727.328	1.63758
729.037	0.899825
730.746	0.729819
732.456	0.831591
734.165	0.81989
735.873	1.03426
737.58	1.4743
739.289	1.0794
740.997	1.04662
742.703	0.879716
744.41	0.961724
746.116	0.864747
747.823	1.46632
749.529	0.831636
751.234	0.805372
752.938	1.00505
754.643	0.890905
756.347	0.957902
758.051	1.31888
759.756	0.802756
761.459	0.715177
763.162	0.943745
764.865	1.44339
766.567	1.42309
768.269	0.519622
769.97	0.880128
771.671	1.12613
773.372	1.64237
775.073	1.3668
776.773	1.27258
778.473	1.22462
780.174	1.58494
781.874	1.51651
783.573	1.24443
785.271	1.51456
786.97	1.78281
788.668	2.07097
790.365	1.5644
792.063	1.46311
793.76	1.40586
795.456	1.28083
797.153	1.47229
798.847	0.854051
800.543	1.61093
802.238	1.82824
803.933	1.39375
805.628	1.79119
807.322	1.87303
809.017	2.11095
810.71	1.49482
812.404	1.59637
814.097	1.71969
815.79	1.64111
817.483	1.33896
819.173	1.50669
820.865	1.60726
822.556	1.86417
824.248	1.60855
825.939	1.22075
827.629	1.65914
829.318	1.1642
831.008	1.25074
832.697	1.56232
834.387	1.43004
836.076	2.05678
837.765	1.59046
839.451	1.47994
841.139	1.03298
842.827	1.45609
844.514	1.87898
846.2	1.98973
847.886	1.65485
849.573	1.14265
851.259	1.41541
852.943	1.17464
854.629	1.27067
856.314	1.25443
857.997	1.25973
859.682	0.99367
861.366	1.22119
863.05	1.53779
864.732	1.44794
866.415	1.28964
868.098	1.60427
869.779	0.430103
871.461	1.17265
873.141	0.990286
874.823	1.59753
876.505	1.14429
878.184	0.848934
879.865	0.824275
881.545	1.22824
883.223	1.45106
884.903	0.92801
886.581	1.01338
888.26	0.826717
889.937	0.95469
891.616	1.01373
893.294	1.40942
894.97	1.35352
896.648	1.43168
898.323	0.273824
900	0.441138
901.675	1.14516
903.351	0.862471
905.026	0.89322
906.701	0.700866
908.375	0.754695
910.05	0.987203
911.723	0.708287
913.398	1.03047
915.07	0.819461
916.742	0.919416
918.415	0.819663
920.087	0.85304
921.76	0.245275
923.43	0.96558
925.103	0.603754
926.773	0.884025
928.443	0.856376
930.114	0.609022
931.783	1.28893
933.454	1.57175
935.123	1.32527
936.791	0.505774
938.461	0.679475
940.128	0.523281
941.796	0.831222
943.464	0.566135
945.131	1.00707
946.797	0.652554
948.465	0.561469
950.131	0.998606
951.797	0.949193
953.462	0.260301
955.128	1.02825
956.793	1.00448
958.457	0.762682
960.121	0.898062
961.786	0.681388
963.45	1.34847
965.113	0.798496
966.775	1.06453
968.44	0.576109
970.102	0.882553
971.763	0.347724
973.425	0.808619
975.086	0.629273
976.748	0.451316
978.409	0.296541
980.069	0.429828
981.729	0.56287
983.388	0.362841
985.048	0.913977
986.708	0.356693
988.367	0.816082
990.025	0.588598
991.683	0.294561
993.341	0.309953
994.998	0.369542
996.655	0.693879
998.312	0.973719
999.969	1.18692
1001.62	1.37751
1003.28	1.34741
1004.94	0.789312
1006.59	0.209933
1008.25	0.81725
1009.9	0.282915
1011.56	0.253993
1013.21	-0.103287
1014.86	1.00763
1016.52	0.629047
1018.17	0.360662
1019.82	0.530555
1021.48	0.854162
1023.13	-0.198566
1024.78	0.65113
1026.43	0.0151148
1028.08	0.296918
1029.73	-0.0116816
1031.38	0.0939102
1033.03	0.525688
1034.68	0.36668
1036.33	0.490253
1037.98	0.329822
1039.63	0.80082
1041.28	0.358124
1042.93	0.41698
1044.57	-0.283303
1046.22	0.0391579
1047.87	0.232568
1049.52	0.318598
1051.16	0.644519
1052.81	0.428055
1054.45	0.168314
1056.1	0.343146
1057.75	0.387395
1059.39	-0.26448
1061.04	0.278973
1062.68	0.582694
1064.32	0.537777
1065.97	0.448568
1067.61	0.271621
1069.25	-0.0797467
1070.9	0.719629
1072.54	-0.00121403
1074.18	0.732641
1075.82	0.31721
1077.47	0.510223
1079.11	0.487304
1080.75	0.183068
1082.39	0.00892258
1084.03	0.744767
1085.67	0.200136
1087.31	-0.583979
1088.95	0.125367
1090.59	0.269869
1092.22	0.240311
1093.86	0.232022
1095.5	-0.0134077
1097.14	0.561324
1098.78	-0.242309
1100.41	0.420221
1102.05	-0.0999131
1103.69	-0.295716
1105.32	0.520432
1106.96	0.476524
1108.59	-0.0407362
1110.23	0.666869
1111.86	0.577579
1113.5	1.00261
1115.13	0.0307808
1116.77	0.153855
1118.4	0.534103
1120.03	-0.00681496
1121.67	0.245882
1123.3	0.156714
1124.93	-0.102794
1126.56	0.964599
1128.19	0.449689
1129.83	0.0638046
1131.46	0.170161
1133.09	0.618758
1134.72	0.0838909
1136.35	-0.13075
1137.98	0.294929
1139.61	-0.177666
1141.24	0.35281
1142.86	0.156889
1144.49	0.238534
1146.12	0.107465
1147.75	-0.555539
1149.38	-0.194893
1151	0.165917
1152.63	0.24972
1154.26	-0.11386
1155.88	-0.11572
1157.51	0.201462
1159.14	-0.16187
1160.76	0.283673
1162.39	0.0920725
1164.01	0.1564
1165.63	-0.012784
1167.26	-0.45858
1168.88	0.0303288
1170.51	0.24147
1172.13	0.153543
1173.75	0.0431232
1175.38	-0.110496
1177	0.138511
1178.62	0.133118
1180.24	0.0859318
1181.86	-0.108572
1183.48	-0.133228
1185.1	0.201342
1186.72	0.112457
1188.34	0.0857363
1189.96	-0.342875
1191.58	-0.0140715
1193.2	0.523015
1194.82	0.00830364
1196.44	0.165936
1198.06	0.093565
1199.68	-0.353722
1201.29	0.47612
1202.91	0.534223
1204.53	0.36477
1206.14	0.656116
1207.76	0.385134
1209.38	0.302145
1210.99	0.531373
1212.61	0.634017
1214.22	0.318037
1215.84	0.708647
1217.45	0.743508
1219.07	0.756716
1220.68	0.935878
1222.29	0.513877
1223.91	0.176533
1225.52	0.586239
1227.13	0.93454
1228.74	0.518374
1230.36	0.57908
1231.97	0.785399
1233.58	1.32332
1235.19	1.3042
1236.8	0.976064
1238.41	0.793391
1240.02	1.31425
1241.63	1.11158
1243.24	0.598196
1244.85	1.18067
1246.46	0.500142
1248.07	0.708582
1249.67	0.957779
1251.28	0.730869
1252.89	0.711054
1254.5	1.04344
1256.1	1.0251
1257.71	0.697449
1259.32	0.805137
1260.92	0.934297
1262.53	1.29172
1264.13	1.13152
1265.74	0.991588
1267.34	1.47283
1268.95	0.813197
1270.55	1.16853
1272.15	1.06686
1273.76	1.13022
1275.36	1.29637
1276.97	0.736398
1278.57	1.46042
1280.17	0.92032
1281.77	0.87716
1283.37	1.93055
1284.97	1.34993
1286.58	0.997876
1288.18	0.688191
1289.78	1.16461
1291.38	1.20741
1292.98	1.80796
1294.58	1.23019
1296.18	1.49832
1297.78	0.732758
1299.37	1.36954
1300.97	1.4682
1302.57	1.05072
1304.17	0.674363
1305.77	0.709328
1307.36	1.66796
1308.96	1.63962
1310.55	1.18103
1312.15	1.1536
1313.75	1.53588
1315.34	1.61182
1316.94	1.72928
1318.53	1.3778
1320.13	1.43446
1321.72	1.63281
1323.32	1.54458
1324.91	1.63799
1326.5	1.26307
1328.1	1.55768
1329.69	1.30537
1331.28	1.39882
1332.87	1.59498
1334.47	1.48991
1336.06	1.38634
1337.65	1.52534
1339.24	1.56281
1340.83	1.03484
1342.42	1.3109
1344.01	0.941567
1345.6	1.51575
1347.19	1.90825
1348.78	1.46017
1350.37	0.854925
1351.96	1.0326
1353.54	1.05183
1355.13	1.21199
1356.72	0.952744
1358.31	1.37246
1359.89	1.07224
1361.48	0.911116
1363.07	0.889123
1364.65	1.14598
1366.24	0.864815
1367.82	1.10236
1369.41	1.59948
1370.99	1.04278
1372.58	1.72111
1374.16	1.06717
1375.75	0.970931
1377.33	1.09364
1378.91	1.25572
1380.5	0.820028
1382.08	0.761386
1383.66	1.41761
1385.25	0.561876
1386.83	1.11713
1388.41	1.21527
1389.99	0.936753
1391.57	0.381379
1393.15	0.699779
1394.73	0.839821
1396.31	1.0193
1397.89	1.13862
1399.47	0.880554
1401.05	0.681367
1402.63	0.858018
1404.21	0.816855
1405.78	0.637749
1407.36	0.716424
1408.94	1.38845
1410.52	0.598825
1412.1	0.579723
1413.67	0.97469
1415.25	0.441273
1416.82	0.558494
1418.4	1.04977
1419.98	0.713466
1421.55	0.555552
1423.13	0.969827
1424.7	0.991625
1426.28	0.935705
1427.85	0.821156
1429.42	1.41496
1431	0.866423
1432.57	1.77328
1434.14	1.53788
1435.71	1.20391
1437.29	1.47981
1438.86	1.81517
1440.43	1.6403
1442	1.89864
1443.57	1.82349
1445.14	2.24003
1446.71	1.8509
1448.28	1.44219
1449.85	1.8397
1451.42	1.41188
1452.99	0.925354
1454.56	1.75689
1456.13	1.90012
1457.7	1.64923
1459.26	2.08601
1460.83	2.06861
1462.4	1.34132
1463.97	1.3801
1465.54	1.31969
1467.1	0.787623
1468.67	0.90431
1470.23	0.844984
1471.8	1.19856
1473.36	0.729081
1474.93	0.789852
1476.49	0.96857
1478.06	1.10812
1479.62	0.4439
1481.19	0.622552
1482.75	1.291
1484.31	1.56727
1485.88	0.119212
1487.44	0.296763
1489	0.943031
1490.56	0.511052
1492.13	0.566712
1493.69	0.542457
1495.25	0.419316
1496.81	0.178765
1498.37	0.386196
1499.93	0.826749
1501.49	0.917727
1503.05	0.912513
1504.61	0.849906
1506.17	1.44574
1507.73	0.802272
1509.28	0.796732
1510.84	0.944621
1512.4	0.590416
1513.96	0.679459
1515.52	0.826092
1517.07	0.550521
1518.63	0.736419
1520.19	1.05646
1521.74	0.381035
1523.3	0.987352
1524.85	0.140762
1526.41	0.305984
1527.96	0.888933
1529.52	0.97549
1531.07	0.378294
1532.63	0.73117
1534.18	0.81874
1535.73	0.566494
1537.29	0.882363
1538.84	0.896147
1540.39	0.306836
1541.94	1.13154
1543.5	1.03243
1545.05	0.632535
1546.6	1.19112
1548.15	0.904134
1549.7	1.51736
1551.25	0.949919
1552.8	0.664606
1554.35	1.40849
1555.9	0.957151
1557.45	1.10513
1559	1.40387
1560.55	1.34964
1562.1	1.18484
1563.65	1.3008
1565.19	0.820171
1566.74	1.16059
1568.29	1.0343
1569.83	1.78496
1571.38	1.34072
1572.93	1.36288
1574.47	1.08625
1576.02	1.25766
1577.56	1.5226
1579.11	1.45187
1580.66	1.68041
1582.2	1.23737
1583.74	1.54208
1585.29	1.60466
1586.83	1.76119
1588.38	1.41294
1589.92	1.02679
1591.46	1.55723
1593.01	1.93782
1594.55	1.64409
1596.09	1.40644
1597.63	1.63756
1599.17	1.94442
1600.71	1.91451
1602.25	1.96005
1603.79	1.81781
1605.34	1.29908
1606.88	2.22589
1608.41	1.87322
1609.95	1.51851
1611.49	1.782
1613.03	1.32997
1614.57	1.10259
1616.11	1.04397
1617.65	1.73556
1619.18	1.26588
1620.72	1.3784
1622.26	1.22985
1623.79	0.876083
1625.33	1.02782
1626.87	1.01044
1628.4	1.25395
1629.94	0.935139
1631.48	1.02699
1633.01	1.11844
1634.55	0.650033
1636.08	1.35816
1637.61	1.24582
1639.15	1.35778
1640.68	1.19013
1642.21	1.04072
1643.75	1.15124
1645.28	1.42814
1646.81	1.90844
1648.34	1.40302
1649.88	1.25144
1651.41	1.13798
1652.94	1.45223
1654.47	1.47049
1656	1.76727
1657.53	1.47086
1659.06	1.80373
1660.59	1.67238
1662.12	1.29947
1663.65	1.53615
1665.18	1.07016
1666.71	0.937411
1668.24	1.43274
1669.76	1.20986
1671.29	1.46743
1672.82	1.19157
1674.35	1.41342
1675.87	0.714437
1677.4	1.06428
1678.93	1.6337
1680.45	0.877924
1681.98	0.783895
1683.5	0.597928
1685.03	0.504009
1686.55	1.03398
1688.08	0.720604
1689.6	0.682647
1691.13	0.608297
1692.65	0.991573
1694.17	0.752524
1695.7	0.696392
1697.22	0.475673
1698.74	0.38276
1700.27	0.0341339
1701.79	0.0867953
1703.31	0.0842862
1704.83	0.0995817
1706.35	0.13271
1707.87	0.620036
1709.39	1.34256
1710.91	0.339947
1712.43	0.245758
1713.95	0.314892
1715.47	0.184836
1716.99	0.326243
1718.51	0.232375
1720.03	0.174722
1721.55	0.622467
1723.07	0.456999
1724.58	0.112381
1726.1	-0.464943
1727.62	0.471162
1729.13	-0.158164
1730.65	0.327952
1732.17	0.203196
1733.68	0.237896
1735.2	-0.0105124
1736.72	-0.201046
1738.23	0.235068
1739.74	0.330697
1741.26	0.201606
1742.77	0.275846
1744.29	0.323802
1745.8	0.0885181
1747.32	0.185221
1748.83	0.235097
1750.34	0.490495
1751.85	-0.329261
1753.37	0.28553
1754.88	-0.295266
1756.39	0.194072
1757.9	0.407153
1759.41	-0.0778055
1760.92	-0.0242581
1762.44	0.215186
1763.95	0.110682
1765.46	0.160291
1766.96	0.321657
1768.47	0.0894146
1769.98	0.269958
1771.49	0.107252
1773	0.0499835
1774.51	0.390851
1776.02	0.476076
1777.53	0.0971518
1779.03	-0.0870857
1780.54	0.10402
1782.05	0.134164
1783.55	-0.162636
1785.06	0.00547457
1786.57	0.185777
1788.07	0.0272593
1789.58	0.208951
1791.08	0.176553
1792.59	-0.0272074
1794.09	0.169343
1795.6	0.147896
1797.1	0.1275
1798.61	0.0760374
1800.11	0.209867
1801.61	-0.0313702
1803.12	0.0282707
1804.62	-0.0285368
1806.12	0.0281796
1807.62	-0.0314932
1809.12	-0.200077
1810.63	-0.0173101
1812.13	0.130568
1813.63	-0.0615048
1815.13	0.197166
1816.63	-0.0515351
1818.13	-0.0416875
1819.63	0.0843921
1821.13	-0.0326867
1822.63	0.364725
1824.13	0.120863
1825.63	-0.0201077
1827.13	0.0196261
1828.62	0.236037
1830.12	0.139481
1831.62	0.0764947
1833.12	0.242131
1834.61	-0.165928
1836.11	0.28649
1837.61	-0.112237
1839.1	0.0626001
1840.6	-0.0942712
1842.09	0.0382366
1843.59	0.0219145
1845.09	0.293993
1846.58	0.11495
1848.08	0.0387063
1849.57	0.0336366
1851.06	0.0868139
1852.56	0.370516
1854.05	0.100922
1855.54	0.135648
1857.04	0.0259633
1858.53	0.226276
1860.02	0.083746
1861.51	0.338355
1863.01	0.239275
1864.5	0.41079
1865.99	0.509655
1867.48	0.282025
1868.97	0.29981
1870.46	0.0573473
1871.95	-0.131476
1873.44	0.37002
1874.93	0.112359
1876.42	0.115384
1877.91	0.195541
1879.4	0.330368
1880.89	0.311362
1882.37	0.138614
1882.46	0.131189
1883.95	0.0609651
1885.45	0.0599079
1886.94	0.52846
1888.43	-0.118017
1889.93	0.158442
1891.42	0.417968
1892.91	0.278671
1894.41	0.106059
1895.9	0.195438
1897.39	0.111602
1898.88	0.340794
1900.37	0.273545
1901.86	0.274632
1903.36	0.152604
1904.85	0.116459
1906.34	-0.128776
1907.83	0.216623
1909.32	-0.0453849
1910.81	0.300804
1912.29	0.248507
1913.78	0.144651
1915.27	0.127622
1916.76	0.509108
1918.25	-0.0459666
1919.74	-0.20254
1921.23	0.177854
1922.71	-0.272867
1924.2	-0.116817
1925.69	0.178506
1927.17	0.163023
1928.66	0.303877
1930.15	0.185017
1931.63	0.221404
1933.12	0.204751
1934.6	-0.107511
1936.09	0.20209
1937.57	0.130017
1939.06	0.299562
1940.54	-0.0489473
1942.02	0.31115
1943.51	-0.156315
1944.99	0.153224
1946.47	0.204279
1947.96	0.151743
1949.44	0.322641
1950.92	-0.0239282
1952.4	0.0421758
1953.88	0.107749
1955.37	0.344988
1956.85	-0.207757
1958.33	0.579373
1959.81	-0.00611401
1961.29	0.112388
1962.77	0.368077
1964.25	0.12656
1965.73	0.0903869
1967.21	-0.339923
1968.69	-0.274157
1970.16	-0.26018
1971.64	-0.178101
1973.12	-0.0961938
1974.6	0.292673
1976.08	0.289101
1977.55	0.200504
1979.03	0.146141
1980.51	0.0918293
1981.98	-0.166523
1983.46	0.135833
1984.94	0.233801
1986.41	-0.313082
1987.89	0.208549
1989.36	0.0352821
1990.84	-0.357256
1992.31	-0.0382905
1993.79	0.213458
1995.26	-0.00755835
1996.73	0.48146
1998.21	-0.212048
1999.68	0.00626898
2001.15	0.00459051
2002.63	-0.317931
2004.1	-0.0333495
2005.57	0.0152788
2007.04	0.401269
2008.51	0.114174
2009.99	0.181414
2011.46	-0.0202937
2012.93	0.165224
2014.4	-0.0871587
2015.87	0.400278
2017.34	0.2308
2018.81	0.0103855
2020.28	0.277034
2021.75	-0.0780883
2023.21	-0.096921
2024.68	-0.199079
2026.15	0.119015
2027.62	0.15292
2029.09	-0.0133333
2030.56	0.0562201
2032.02	-0.0748386
2033.49	0.012619
2034.96	0.200897
2036.42	0.187442
2037.89	-0.0616632
2039.36	0.159402
2040.82	0.178778
2042.29	0.215249
2043.75	0.185007
2045.22	0.189069
2046.68	0.277888
2048.14	0.181755
2049.61	0.0515909
2051.07	0.325224
2052.54	0.108799
2054	0.177677
2055.46	0.19464
2056.93	0.00825167
2058.39	0.343763
2059.85	0.0387812
2061.31	-0.0131192
2062.77	0.171256
2064.23	0.356291
2065.7	-0.063786
2067.16	0.156281
2068.62	0.00654411
2070.08	0.210506
2071.54	0.380901
2073	-0.105425
2074.46	0.249904
2075.92	0.234556
2077.38	0.252607
2078.83	-0.0159211
2080.29	0.153049
2081.75	0.0690265
2083.21	0.338032
2084.67	0.168808
2086.12	0.268288
2087.58	0.232693
2089.04	-0.0888939
2090.49	0.311975
2091.95	0.544483
2093.41	-0.0287561
2094.86	0.253744
2096.32	0.250618
2097.77	0.196748
2099.23	0.577622
2100.68	0.238541
2102.14	0.200911
2103.59	0.0470376
2105.05	-0.139107
2106.5	0.259828
2107.95	0.542554
2109.41	0.575308
2110.86	0.124218
2112.31	0.0557489
2113.76	0.335829
2115.21	0.481165
2116.67	0.243156
2118.12	0.371195
2119.57	0.433604
2121.02	0.148989
2122.47	0.512841
2123.92	0.214364
2125.37	-0.0835404
2126.82	0.347957
2128.27	0.563105
2129.72	0.197112
2131.17	0.426714
2132.62	0.622338
2134.07	0.155948
2135.51	0.269324
2136.96	0.615053
2138.41	0.747169
2139.86	0.59979
2141.31	0.255267
2142.75	0.473656
2144.2	0.361852
2145.65	0.514873
2147.09	0.50224
2148.54	0.621631
2149.98	0.740436
2151.43	0.576851
2152.87	0.677594
2154.32	0.694857
2155.76	0.595778
2157.21	0.678967
2158.65	0.6964
2160.1	0.79765
2161.54	0.519133
2162.98	0.241757
2164.43	0.794662
2165.87	0.801138
2167.31	0.707904
2168.75	0.863146
2170.2	0.634668
2171.64	0.870256
2173.08	0.738396
2174.52	0.705275
2175.96	0.754843
2177.4	0.904276
2178.84	0.705097
2180.28	0.506672
2181.72	0.741181
2183.16	0.743391
2184.6	0.962044
2186.04	0.731672
2187.48	0.750812
2188.92	0.536999
2190.36	0.456254
2191.79	0.608364
2193.23	0.343733
2194.67	0.710817
2196.11	0.876692
2197.54	0.774695
2198.98	0.471934
2200.42	0.816782
2201.85	0.613067
2203.29	0.194427
2204.72	0.456925
2206.16	0.554179
2207.59	0.502665
2209.03	0.782274
2210.46	0.564498
2211.9	0.24696
2213.33	0.325988
2214.77	0.289162
2216.2	0.582928
2217.63	0.266763
2219.07	0.545477
2220.5	0.478451
2221.93	0.164371
2223.36	0.245421
2224.8	0.061945
2226.23	0.206586
2227.66	0.2347
2229.09	0.2618
2230.52	0.140594
2231.95	-0.0296812
2233.39	0.700897
2234.81	0.416651
2236.25	0.13381
2237.67	-0.0658112
2239.1	-0.00279522
2240.53	0.583557
2241.96	0.0293655
2243.39	-0.0834942
2244.82	0.179077
2246.25	-0.11336
2247.68	0.115052
2249.1	-0.147261
2250.53	0.240806
2251.96	0.1712
2253.38	0.361265
2254.81	0.55115
2256.24	0.206033
2257.66	0.301173
2259.09	0.0738788
2260.51	0.481498
2261.94	0.0796237
2263.36	0.00335979
2264.79	0.106036
2266.21	0.273627
2267.64	0.245601
2269.06	0.0541267
2270.49	0.236349
2271.91	0.255454
2273.33	0.518713
2274.76	0.260871
2276.18	0.45928
2277.6	0.364563
2279.02	0.400267
2280.44	0.305493
2281.87	0.259512
2283.29	0.0176606
2284.71	0.183679
2286.13	0.0234766
2287.55	0.124686
2288.97	0.19361
2290.39	0.279231
2291.81	0.0708885
2293.23	0.483912
2294.65	0.275558
2296.07	0.148802
2297.49	-0.174608
2298.91	0.353612
2300.33	0.505467
2301.74	0.444512
2303.16	0.236071
2304.58	-0.0217128
2306	-0.115584
2307.41	0.1024
2308.83	0.303751
2310.25	0.208829
2311.66	-0.429274
2313.08	0.00169039
2314.5	0.350909
2315.91	0.174013
2317.33	-0.0683737
2318.74	0.183839
2320.16	0.551636
2321.57	0.0774512
2322.98	-0.11782
2324.4	0.196838
2325.81	0.476716
2327.23	0.557166
2328.64	0.554492
2330.05	0.32133
2331.46	0.154908
2332.88	0.219852
2334.29	-0.191764
2335.7	0.186637
2337.11	0.252066
2338.52	-0.0613875
2339.94	0.0354133
2341.35	0.197094
2342.76	0.22688
2344.17	-0.317418
2345.58	0.204497
2346.99	0.103549
2348.4	-0.16094
2349.81	0.0981312
2351.22	0.0947332
2352.62	-0.10537
2354.03	-0.240526
2355.44	-0.0335956
2356.85	0.368036
2358.26	0.13442
2359.67	0.128854
2361.07	0.204527
2362.48	-0.0118146
2363.89	0.22573
2365.29	-0.0388346
2366.7	0.0528517
2368.11	0.257794
2369.51	0.237278
2370.92	-0.0885043
2372.32	0.247633
2373.73	0.407058
2375.13	0.309119
2376.54	0.387989
2377.94	0.208694
2379.35	0.157033
2380.75	0.0881681
2382.15	0.515491
2383.56	0.380527
2384.96	-0.0102658
2386.36	-0.104252
2387.76	-0.197406
2389.17	-0.0423927
2390.57	-0.63554
2391.97	-0.160329
2393.37	0.139983
2394.77	0.424704
2396.17	0.534853
2397.58	-0.0220876
2398.98	0.279727
2400.38	0.12109
2401.78	0.23277
2403.18	0.201528
2404.58	0.201789
2405.97	0.0426941
2407.37	-0.180447
2408.77	0.0876961
2410.17	0.149236
2411.57	0.369287
2412.97	0.0196142
2414.37	-0.107248
2415.76	0.083601
2417.16	-0.0095396
2418.56	0.103824
2419.95	0.43924
2421.35	0.125263
2422.75	0.254518
2424.14	-0.139268
2425.54	0.100731
2426.93	0.357015
2428.33	0.487239
2429.72	0.3804
2431.12	0.0518899
2432.51	0.358178
2433.91	0.251457
2435.3	0.334474
2436.7	-0.0602493
2438.09	0.21118
2439.48	0.243295
2440.88	0.306449
2442.27	0.321511
2443.66	0.320466
2445.05	0.446177
2446.44	0.270421
2447.84	0.364126
2449.23	0.346847
2450.62	0.313916
2452.01	0.218094
2453.4	0.0596199
2454.79	-0.00323009
2456.18	-0.0813661
2457.57	0.0147519
2458.96	0.205663
2460.35	0.0640144
2461.74	0.0957532
2463.13	0.111081
2464.52	-0.284826
2465.91	0.282722
2467.29	0.312986
2468.68	-0.05128
2470.07	0.0262413
2471.46	-0.0385041
2472.85	0.274423
2474.23	-0.0590787
2475.62	0.0636163
2477.01	0.185834
2478.39	0.119344
2479.78	0.037385
2481.16	0.316327
2482.55	0.344106
2483.93	-0.145113
2485.32	-0.211791
2486.7	0.330197
2488.09	-0.284651
2489.47	-0.0257568
2490.86	0.0455713
2492.24	0.0393472
2493.62	0.297881
2495.01	-0.0481105
2496.39	0.0414338
2497.77	0.239913
2499.15	-0.0724573
2500.54	0.156763
2501.92	0.184148
2503.3	-0.0517373
2504.68	-0.0410113
2506.06	0.0770936
2507.45	-0.236214
2508.83	-0.0413952
2510.21	0.383671
2511.59	-0.250298
2512.97	0.282483
2514.35	0.110444
2515.73	0.00053215
2517.11	-0.0474787
2518.48	0.119019
2519.86	0.0562692
2521.24	-0.0676837
2522.62	0.26596
2524	0.217216
2525.38	-0.0453696
2526.75	-0.0945425
2528.13	-0.0672874
2529.51	-0.024097
2530.89	-0.147011
2532.26	-0.0559072
2533.64	0.020967
2535.02	0.31108
2536.39	-0.0520906
2537.77	0.17677
2539.14	-0.0355806
2540.52	0.146333
2541.89	0.176064
2543.27	-0.173354
2544.64	0.175788
2546.01	0.389221
2547.39	0.391236
2548.76	-0.0157051
2550.14	-0.0888548
2551.51	-0.071291
2552.88	0.00633812
2554.25	0.0983834
2555.63	0.0987
2557	0.250271
2558.37	0.113544
2559.74	0.310586
2561.11	0.0835648
2562.49	0.190492
2563.86	0.206923
2565.23	0.344925
2566.6	0.377052
2567.97	0.151618
2569.34	0.0322704
2570.71	-0.344755
2572.08	-0.267061
2573.45	0.00776291
2574.82	0.055305
2576.18	-0.0487242
2577.55	0.195917
2578.92	0.0461907
2580.29	0.0933294
2581.66	0.276633
2583.02	0.0654354
2584.39	-0.100421
2585.76	0.142992
2587.13	0.356124
2588.49	0.0237713
2589.86	0.525064
2591.22	0.0866861
2592.59	0.163228
2593.96	-0.215296
2595.32	-0.0340133
2596.69	-0.020123
2598.05	0.295735
2599.42	0.0212779
2600.78	0.124972
2602.14	0.0627875
2603.51	-0.044127
2604.87	0.166357
2606.23	0.0299058
2607.6	-0.106656
2608.96	-0.0628204
2610.32	-0.170512
2611.69	0.428397
2613.05	0.153236
2614.41	0.328673
2615.77	0.248428
2617.13	-0.191271
2618.49	-0.180391
2619.86	-0.198902
2621.22	-0.0673275
2622.58	-0.159689
2623.94	0.181299
2625.3	0.0293608
2626.66	-0.167284
2628.02	-0.214864
2629.37	0.333021
2630.73	0.28476
2632.09	-0.0757084
2633.45	-0.168242
2634.81	-0.0973759
2636.17	-0.0266418
2637.53	-0.282036
2638.88	0.0848975
2640.24	0.22944
2641.6	-0.0695658
2642.96	-0.205416
2644.31	0.234821
2645.67	0.0105238
2647.02	-0.0515647
2648.38	-0.010932
2649.74	0.190922
2651.09	-0.137389
2652.45	-0.0246735
2653.8	-0.220147
2655.16	0.171588
2656.51	-0.0370355
2657.86	0.355596
2659.22	0.163311
2660.57	0.3371
2661.93	0.0429668
2663.28	-0.105207
2664.63	0.286304
2665.98	0.0203328
2667.34	-0.0561209
2668.69	0.173273
2670.04	0.533449
2671.39	0.733557
2672.75	0.614238
2674.09	0.568184
2675.45	0.46458
2676.8	0.390541
2678.15	0.476607
2679.5	-0.50973
2680.85	0.186779
2682.2	-0.188777
2683.55	0.146974
2684.9	0.0339551
2686.25	0.196916
2687.6	0.185746
2688.94	0.0430593
2690.29	0.47983
2691.64	0.160344
2692.99	0.304181
2694.34	-0.0313978
2695.68	0.32888
2697.03	0.00839949
2698.38	0.0366426
2699.73	0.05161
2701.07	0.0244131
2702.42	0.0272751
2703.76	-0.113981
2705.11	-0.0375113
2706.45	0.0390801
2707.8	0.130077
2709.15	-0.0114064
2710.49	0.543769
2711.83	-0.106581
2713.18	0.0562911
2714.52	0.0302563
2715.87	-0.0685329
2717.21	0.210672
2718.55	-0.25209
2719.9	0.0267806
2721.24	-0.0583973
2722.58	-0.129382
2723.93	0.0176244
2725.27	0.237105
2726.61	0.0633111
2727.95	0.282263
2729.29	0.0353212
2730.63	0.34125
2731.98	0.166973
2733.32	0.0218945
2734.66	0.138795
2736	0.590356
2737.34	-0.048811
2738.68	0.155584
2740.02	0.359785
2741.36	0.185551
2742.7	0.30165
2744.03	0.0974412
2745.37	0.212521
2746.71	0.196491
2748.05	0.00614452
2749.39	0.164214
2750.72	0.29329
2752.06	0.291981
2753.4	0.145923
2754.74	0.0870237
2756.07	0.216556
2757.41	0.0130968
2758.75	-0.204545
2760.08	0.0268464
2761.42	0.345335
2762.76	-0.160656
2764.09	0.18733
2765.42	0.0433655
2766.76	-0.129821
2768.09	0.000161648
2769.43	0.0279498
2770.76	-0.0753999
2772.1	-0.266245
2773.43	0.3794
2774.76	0.100825
2776.1	-0.0332613
2777.43	0.120981
2778.76	0.131573
2780.1	0.200021
2781.43	0.383516
2782.76	-0.0502748
2784.09	-0.110634
2785.42	0.201708
2786.75	-0.0448341
2788.09	-0.0187402
2789.42	0.322655
2790.75	-0.0363798
2792.08	0.0486436
2793.41	0.00531912
2794.74	-0.0379415
2796.07	0.00432348
2797.4	-0.1538
2798.73	0.158978
2800.06	-0.0283437
2801.39	-0.0445075
2802.71	-0.0607891
2804.04	0.350294
2805.37	0.376048
2806.7	-0.111096
2808.03	-0.157102
2809.35	0.0951138
2810.68	-0.0506973
2812.01	0.783322
2813.33	0.170492
2814.66	-0.0153503
2815.99	-0.497707
2817.31	0.126372
2818.64	0.396512
2819.96	-0.127041
2821.29	0.0577741
2822.61	0.412128
2823.94	-0.0417018
2825.26	0.340126
2826.59	0.296955
2827.91	0.155068
2829.23	0.282615
2830.56	0.368022
2831.88	0.212949
2833.21	0.468348
2834.53	-0.295591
2835.85	0.426268
2837.17	0.42588
2838.5	0.057375
2839.82	0.339437
2841.14	0.564861
2842.46	0.649124
2843.78	0.592501
2845.1	0.748405
2846.42	1.01783
2847.74	0.821156
2849.06	1.06265
2850.38	0.992983
2851.71	0.725091
2853.03	0.965637
2854.34	0.767786
2855.66	0.852421
2856.98	1.34669
2858.3	0.993371
2859.62	1.10619
2860.94	1.3177
2862.26	1.19007
2863.57	1.10458
2864.89	1.59745
2866.21	1.52577
2867.53	1.76458
2868.84	1.6652
2870.16	1.90452
2871.48	1.66465
2872.79	2.03068
2874.11	1.60696
2875.42	1.85883
2876.74	1.79994
2878.05	1.68421
2879.37	2.11686
2880.68	1.93078
2882	1.63307
2883.31	2.02454
2884.63	1.98123
2885.94	2.02262
2887.26	1.76932
2888.57	1.8526
2889.88	2.18777
2891.19	1.98923
2892.51	1.88851
2893.82	1.68968
2895.13	1.78532
2896.44	2.35735
2897.76	2.09019
2899.07	2.06176
2900.38	2.22976
2901.69	2.28619
2903	2.63651
2904.31	2.63722
2905.62	2.30244
2906.93	1.87013
2908.24	2.12377
2909.55	2.47601
2910.86	2.63288
2912.17	3.06978
2913.48	2.6383
2914.79	2.75175
2916.1	2.72397
2917.41	3.21288
2918.71	2.8333
2920.02	3.1811
2921.33	3.10968
2922.64	3.0252
2923.94	3.10949
2925.25	3.20859
2926.56	3.99313
2927.86	3.6035
2929.17	3.60501
2930.48	3.60611
2931.78	3.85845
2933.09	3.9568
2934.39	3.73362
2935.7	3.32887
2937	3.48329
2938.31	3.07886
2939.61	3.1218
2940.92	3.45854
2942.22	3.23694
2943.53	3.15592
2944.83	3.34147
2946.13	3.15041
2947.43	2.80576
2948.74	2.75462
2950.04	2.29664
2951.34	2.87347
2952.64	2.62284
2953.95	2.81925
2955.25	2.28735
2956.55	2.456
2957.85	2.47205
2959.15	1.92996
2960.45	2.62204
2961.75	2.71368
2963.05	2.70789
2964.35	2.30864
2965.65	1.96403
2966.95	1.91305
2968.25	2.24066
2969.55	2.17414
2970.85	1.95275
2972.15	1.68925
2973.45	1.87617
2974.75	1.71128
2976.05	1.65852
2977.34	1.66119
2978.64	2.01465
2979.94	1.7614
2981.24	1.52137
2982.53	1.39361
2983.83	1.28022
2985.13	1.84226
2986.42	1.22475
2987.72	1.28289
2989.01	1.08881
2990.31	1.2041
2991.61	0.967696
2992.9	1.03975
2994.19	0.998467
2995.49	0.591174
2996.78	0.885655
2998.08	0.73062
2999.37	0.617949
3000.67	0.631916
3001.96	0.632257
3003.25	0.70295
3004.55	0.437472
3005.84	0.564084
3007.13	0.410193
3008.42	0.54966
3009.72	0.22688
3011.01	0.532758
3012.3	0.321247
3013.59	0.263486
3014.88	0.470945
3016.17	0.0377717
3017.46	0.246088
3018.76	0.510189
3020.05	0.315117
3021.34	0.0782509
3022.63	0.202218
3023.92	0.158743
3025.21	0.156363
3026.49	0.112237
3027.78	0.0684824
3029.07	0.440333
3030.36	0.0251551
3031.65	0.246751
3032.94	-0.0556726
3034.23	-0.0126328
3035.51	0.223151
3036.8	0.182021
3038.09	0.26364
3039.38	0.261137
3040.66	-0.0449405
3041.95	0.0746059
3043.23	-0.0529943
3044.52	0.395212
3045.81	0.214548
3047.09	0.131423
3048.38	0.295839
3049.66	-0.28899
3050.95	0.191939
3052.23	0.195781
3053.52	0.472535
3054.8	0.475891
3056.09	0.396614
3057.37	0.466506
3058.65	0.249571
3059.94	0.277739
3061.22	0.0611515
3062.5	0.389496
3063.79	0.242677
3065.07	0.124221
3066.35	0.29227
3067.63	0.569856
3068.92	0.0998812
3070.2	0.105609
3071.48	0.042726
3072.76	0.19656
3074.04	-0.167184
3075.32	0.0529542
3076.6	-0.121238
3077.88	-0.077837
3079.16	0.0340734
3080.44	-0.0565252
3081.72	0.220223
3083	0.0366664
3084.28	0.0299406
3085.56	-0.0853114
3086.84	-0.133051
3088.12	0.117309
3089.4	0.217827
3090.67	-0.0755725
3091.95	-0.219758
3093.23	-0.17391
3094.51	-0.195698
3095.78	0.257251
3097.06	0.0593877
3098.34	0.173266
3099.61	-0.227932
3100.89	-0.0465112
3102.17	0.161906
3103.44	-0.26594
3104.72	0.240702
3105.99	0.490526
3107.27	0.104936
3108.54	0.0584054
3109.82	-0.0279999
3111.09	-0.276247
3112.37	0.220831
3113.64	0.149478
3114.92	-0.0168424
3116.19	0.0604696
3117.46	0.00155783
3118.74	-0.0581393
3120.01	0.166161
3121.28	-0.0577469
3122.55	0.111062
3123.83	-0.194566
3125.1	0.00114393
3126.37	0.0616341
3127.64	-0.202251
3128.91	0.170059
3130.19	0.136752
3131.46	0.117037
3132.73	-0.240584
3134	0.225716
3135.27	0.0296893
3136.54	0.251685
3137.81	0.0954876
3139.08	0.181706
3140.35	0.550277
3141.62	0.205457
3142.89	0.197325
3144.16	0.189521
3145.42	-0.193493
3146.69	0.21544
3147.96	0.0749903
3149.23	0.269832
